##NAMES=Amesite
##RRUFFID=R070132
##IDEAL CHEMISTRY=Mg_2_Al(AlSiO_5_)(OH)_4_
##LOCALITY=Saranovskii mine, Saranovskaya Village, Gornozavodskii area, Permskaya Oblast', Middle Urals, Russia
##OWNER=RRUFF
##SOURCE=Michael Scott
##DESCRIPTION=Purple transparent hexagonal prisms, polytype 2H2
##STATUS=The identification of this mineral is confirmed by single-crystal X-ray diffraction and chemical analysis.
##URL=rruff.info/R070132
##MEASURED CHEMISTRY=(Mg_1.87_[box]_0.05_Cr_0.05_Fe^2+^_0.03_)_Σ=2_(Al_0.98_Cr_0.02_)_Σ=1_(Si_1.05_Al_0.95_)O_5_(OH)_4_ ; OH estimated by difference
##PIN_ID=M00194
116.6560, 0.0000000E+00
117.8910, 18.39648
119.1260, 128.7183
120.3610, 2.739746
121.5960, 110.0088
122.8300, 463.3486
124.0640, 813.5557
125.2990, 869.9092
126.5330, 955.8184
127.7670, 1287.240
129.0000, 1993.915
130.2340, 2856.546
131.4670, 3547.999
132.7000, 3756.627
133.9330, 3810.722
135.1660, 3531.527
136.3990, 3002.171
137.6310, 2382.501
138.8640, 1879.194
140.0960, 1396.988
141.3280, 952.2402
142.5600, 467.3311
143.7910, 339.2344
145.0230, 99.11328
146.2540, 93.87207
147.4850, 74.43457
148.7160, 46.74316
149.9470, 87.24707
151.1780, 12.42480
152.4080, 212.7334
153.6380, 33.65332
154.8690, 75.15527
156.0980, 46.20215
157.3280, 7.761719
158.5580, 24.12598
159.7870, 233.6807
161.0170, 80.73242
162.2460, 100.3691
163.4750, 8.186523
164.7030, 277.1475
165.9320, 170.7344
167.1600, 175.3838
168.3890, 439.0400
169.6170, 290.7275
170.8450, 512.4717
172.0730, 606.2969
173.3000, 686.4609
174.5280, 897.2734
175.7550, 1068.464
176.9820, 1488.813
178.2090, 1929.337
179.4350, 2350.049
180.6620, 3114.958
181.8880, 3779.080
183.1150, 4789.424
184.3410, 6038.997
185.5670, 7489.811
186.7920, 9060.869
188.0180, 11332.18
189.2430, 13600.76
190.4690, 15996.57
191.6940, 18892.51
192.9180, 21933.57
194.1430, 25041.76
195.3680, 28388.08
196.5920, 31558.53
197.8160, 33828.11
199.0400, 37283.80
200.2640, 39917.62
201.4880, 42095.57
202.7110, 43954.63
203.9350, 43951.82
205.1580, 43276.11
206.3810, 40884.52
207.6040, 37788.96
208.8270, 33803.50
210.0490, 28982.32
211.2710, 24199.93
212.4940, 19405.12
213.7160, 15692.47
214.9370, 12386.64
216.1590, 9624.525
217.3810, 7508.654
218.6020, 6024.034
219.8230, 4846.668
221.0440, 3703.559
222.2650, 2894.711
223.4860, 2280.125
224.7060, 1881.805
225.9260, 1515.754
227.1470, 1422.975
228.3670, 1655.470
229.5860, 1751.242
230.8060, 2074.292
232.0260, 2769.622
233.2450, 3648.231
234.4640, 4847.121
235.6830, 6098.289
236.9020, 6911.738
238.1200, 8730.460
239.3390, 11078.44
240.5570, 14144.68
241.7750, 18221.19
242.9930, 22613.95
244.2110, 26496.97
245.4290, 28337.25
246.6460, 26350.79
247.8630, 21577.59
249.0810, 15740.65
250.2980, 11167.96
251.5140, 7892.520
252.7310, 5995.338
253.9470, 4913.407
255.1640, 4252.729
256.3800, 4148.300
257.5960, 4050.120
258.8120, 4158.768
260.0270, 4252.090
261.2430, 4513.860
262.4580, 4840.862
263.6730, 5228.082
264.8880, 5955.804
266.1030, 6403.448
267.3170, 7314.135
268.5320, 8476.013
269.7460, 9546.982
270.9600, 11098.04
272.1740, 12428.17
273.3880, 13917.37
274.6010, 14797.64
275.8150, 14978.97
277.0280, 14834.39
278.2410, 14626.86
279.4540, 14438.39
280.6670, 14551.71
281.8790, 14239.21
283.0920, 14194.90
284.3040, 13990.71
285.5160, 13190.24
286.7280, 11886.86
287.9400, 10363.72
289.1510, 8459.803
290.3630, 6791.108
291.5740, 5413.721
292.7850, 3916.828
293.9960, 2796.017
295.2070, 1915.951
296.4170, 1003.229
297.6280, 641.9697
298.8380, 219.7480
300.0480, 134.5928
301.2580, 419.4307
302.4680, 587.1250
303.6770, 663.1846
304.8870, 625.3945
306.0960, 622.6973
307.3050, 503.9854
308.5140, 473.8613
309.7230, 264.8818
310.9310, 191.7393
312.1400, 119.5742
313.3480, 545.0664
314.5560, 795.7617
315.7640, 1143.672
316.9720, 1596.803
318.1790, 1649.150
319.3870, 1912.734
320.5940, 2159.570
321.8010, 2642.684
323.0080, 3011.015
324.2150, 3801.572
325.4210, 4582.336
326.6280, 5161.307
327.8340, 5356.489
329.0400, 5531.896
330.2460, 5448.533
331.4510, 5108.406
332.6570, 5109.527
333.8620, 5025.898
335.0680, 5014.508
336.2730, 5449.371
337.4780, 6192.471
338.6820, 7047.779
339.8870, 7602.316
341.0910, 8006.086
342.2950, 7933.043
343.5000, 7715.172
344.7030, 6646.485
345.9070, 6073.006
347.1110, 5206.710
348.3140, 4425.615
349.5170, 3718.705
350.7200, 2961.796
351.9230, 2260.505
353.1260, 1602.210
354.3290, 1082.080
355.5310, 494.9062
356.7330, 250.6289
357.9350, 459.2803
359.1370, 613.9697
360.3390, 420.7939
361.5400, 509.7773
362.7420, 830.9307
363.9430, 1122.256
365.1440, 1532.738
366.3450, 2222.377
367.5460, 2999.170
368.7460, 3732.116
369.9470, 4344.216
371.1470, 5111.467
372.3470, 5830.867
373.5470, 7039.418
374.7460, 8238.117
375.9460, 9864.963
377.1450, 10964.95
378.3450, 12080.09
379.5440, 12636.37
380.7430, 12185.79
381.9410, 11545.36
383.1400, 10523.06
384.3380, 9892.906
385.5370, 9555.886
386.7350, 9077.006
387.9320, 8977.697
389.1300, 9103.647
390.3280, 9108.171
391.5250, 9207.824
392.7220, 9665.610
393.9190, 10324.53
395.1160, 10915.57
396.3130, 11990.75
397.5100, 13298.05
398.7060, 14720.48
399.9020, 16766.03
401.0980, 20038.70
402.2940, 24036.50
403.4900, 29384.42
404.6860, 35000.45
405.8810, 40157.62
407.0760, 43533.89
408.2710, 45236.30
409.4660, 44668.84
410.6610, 42997.52
411.8550, 41708.34
413.0500, 39853.29
414.2440, 36799.37
415.4380, 32681.59
416.6320, 27729.93
417.8260, 22651.41
419.0190, 18031.02
420.2130, 14647.77
421.4060, 11615.64
422.5990, 9033.643
423.7920, 7267.777
424.9850, 5810.047
426.1770, 4979.443
427.3700, 4400.973
428.5620, 3409.629
429.7540, 3270.418
430.9460, 2923.334
432.1380, 2751.381
433.3290, 2553.556
434.5210, 2566.857
435.7120, 2601.289
436.9030, 2811.848
438.0940, 3028.534
439.2850, 3174.350
440.4750, 3232.321
441.6660, 3385.424
442.8560, 3409.646
444.0460, 3567.479
445.2360, 3735.240
446.4260, 3894.332
447.6160, 3830.227
448.8050, 3993.097
449.9940, 3947.531
451.1830, 4240.188
452.3720, 4464.468
453.5610, 4370.351
454.7500, 4733.350
455.9380, 4919.914
457.1260, 4909.340
458.3150, 5017.350
459.5020, 5257.391
460.6900, 5312.336
461.8780, 5596.707
463.0650, 5855.262
464.2530, 6015.190
465.4400, 6973.863
466.6270, 7760.473
467.8130, 8774.804
469.0000, 10428.09
470.1870, 12495.35
471.3730, 14564.39
472.5590, 17240.20
473.7450, 19808.95
474.9310, 21724.99
476.1160, 23583.66
477.3020, 24773.37
478.4870, 24721.62
479.6720, 23686.52
480.8570, 22436.87
482.0420, 20672.60
483.2270, 19134.58
484.4110, 17724.07
485.5960, 16502.12
486.7800, 15873.37
487.9640, 15194.69
489.1480, 14723.50
490.3310, 13950.21
491.5150, 13537.85
492.6980, 13031.23
493.8810, 12122.75
495.0640, 11253.23
496.2470, 9893.787
497.4300, 8526.985
498.6120, 7343.295
499.7950, 6345.990
500.9770, 5371.733
502.1590, 4658.990
503.3410, 4132.711
504.5220, 3669.285
505.7040, 3618.924
506.8850, 3592.820
508.0660, 3678.723
509.2470, 3638.669
510.4280, 3774.661
511.6090, 3813.698
512.7890, 4140.188
513.9700, 4714.900
515.1500, 5021.066
516.3300, 5699.271
517.5100, 6452.516
518.6900, 7333.798
519.8690, 8483.387
521.0490, 9599.475
522.2280, 11176.87
523.4070, 12784.29
524.5860, 14478.76
525.7640, 16323.25
526.9430, 18389.78
528.1210, 19972.34
529.3000, 21032.92
530.4780, 21462.54
531.6560, 21605.19
532.8330, 20914.86
534.0110, 19894.57
535.1880, 18586.29
536.3650, 17125.04
537.5430, 15367.82
538.7190, 13823.62
539.8960, 12594.44
541.0730, 11409.28
542.2490, 10155.14
543.4250, 9369.024
544.6020, 8277.927
545.7780, 7768.846
546.9530, 7054.782
548.1290, 6410.736
549.3040, 6072.705
550.4800, 5546.688
551.6550, 5311.686
552.8300, 5032.695
554.0040, 4623.717
555.1790, 4493.750
556.3540, 4312.793
557.5280, 4027.845
558.7020, 3904.905
559.8760, 3664.972
561.0500, 3755.046
562.2230, 3613.125
563.3970, 3532.210
564.5700, 3399.437
565.7430, 3123.387
566.9160, 3026.479
568.0890, 2828.572
569.2620, 2640.666
570.4340, 2322.758
571.6070, 2171.849
572.7790, 1756.937
573.9510, 1502.021
575.1230, 1226.102
576.2940, 982.1777
577.4660, 858.2451
578.6370, 776.3066
579.8080, 579.3604
580.9790, 486.4043
582.1500, 456.4395
583.3210, 563.4629
584.4910, 267.4736
585.6620, 177.4883
586.8320, 242.5410
588.0020, 93.66406
589.1720, 122.8682
590.3410, 29.14746
591.5110, 88.49121
592.6800, 29.11621
593.8500, 44.72070
595.0190, 56.36426
596.1880, 15.06348
597.3560, 109.8203
598.5250, 146.6846
599.6930, 157.6777
600.8620, 150.8076
602.0300, 216.0742
603.1970, 277.5156
604.3650, 358.1631
605.5330, 142.0645
606.7000, 168.1084
607.8680, 95.30859
609.0350, 89.88184
610.2020, 116.8711
611.3680, 156.6572
612.5350, 180.3994
613.7010, 207.3184
614.8680, 239.4277
616.0340, 261.5312
617.2000, 226.2910
618.3660, 263.0420
619.5310, 206.0205
620.6970, 98.20117
621.8620, 180.5254
623.0270, 181.0332
624.1920, 10.71289
625.3570, 33.50293
626.5220, 0.3564450
627.6860, 78.31836
628.8500, 3.424805
630.0140, 62.50684
631.1780, 5.012695
632.3420, 99.44336
633.5060, 51.05957
634.6700, 79.81348
635.8330, 1.282227
636.9960, 69.26562
638.1590, 10.18066
639.3220, 166.9951
640.4850, 125.7891
641.6470, 209.5273
642.8100, 279.2363
643.9720, 146.9219
645.1340, 113.5566
646.2960, 284.1445
647.4570, 375.6943
648.6190, 311.2168
649.7800, 413.7129
650.9420, 435.1641
652.1030, 376.5967
653.2640, 510.9814
654.4240, 628.3193
655.5850, 573.6133
656.7450, 830.8594
657.9060, 864.0605
659.0660, 930.2129
660.2260, 966.3184
661.3850, 1077.785
662.5450, 1184.441
663.7040, 1372.340
664.8640, 1480.248
666.0230, 1756.107
667.1820, 1977.916
668.3410, 2274.675
669.4990, 2502.383
670.6580, 2978.041
671.8160, 3455.646
672.9740, 4122.202
674.1320, 4712.707
675.2900, 5806.158
676.4480, 6646.559
677.6050, 7599.908
678.7630, 8965.202
679.9200, 10293.45
681.0770, 11254.64
682.2340, 12837.78
683.3900, 13754.86
684.5470, 14037.89
685.7030, 14333.88
686.8590, 13880.80
688.0150, 12890.68
689.1710, 11757.49
690.3270, 10919.26
691.4830, 10361.97
692.6380, 9949.629
693.7930, 10028.23
694.9480, 10233.78
696.1030, 10759.28
697.2580, 11890.71
698.4130, 12827.10
699.5670, 14122.43
700.7210, 15827.71
701.8750, 17569.93
703.0290, 19725.10
704.1830, 21408.21
705.3370, 23144.26
706.4900, 24447.26
707.6430, 25068.21
708.7970, 24512.10
709.9490, 23092.93
711.1020, 21055.71
712.2550, 18823.44
713.4070, 16459.11
714.5600, 14328.73
715.7120, 12596.28
716.8640, 10821.79
718.0160, 9264.237
719.1670, 8165.630
720.3190, 7097.969
721.4700, 6066.251
722.6210, 5445.480
723.7720, 4742.652
724.9230, 4128.771
726.0740, 3693.232
727.2250, 3308.268
728.3750, 2972.789
729.5250, 2745.857
730.6750, 2553.694
731.8250, 2334.799
732.9750, 2127.717
734.1240, 1983.205
735.2740, 1834.861
736.4230, 1631.715
737.5720, 1493.040
738.7210, 1381.388
739.8700, 1439.885
741.0190, 1121.009
742.1670, 1163.007
743.3150, 1048.678
744.4630, 789.6562
745.6110, 957.7500
746.7590, 872.1670
747.9070, 776.6826
749.0540, 715.2695
750.2020, 637.1260
751.3490, 802.2656
752.4960, 579.4941
753.6430, 573.4932
754.7890, 703.8965
755.9360, 445.3125
757.0820, 468.2266
758.2280, 443.5352
759.3740, 486.4307
760.5200, 459.3408
761.6660, 374.9482
762.8120, 322.8535
763.9570, 345.2217
765.1020, 491.4297
766.2470, 407.5898
767.3920, 596.2988
768.5370, 423.1514
769.6810, 598.0957
770.8260, 671.3447
771.9700, 631.4922
773.1140, 622.0264
774.2580, 631.1973
775.4020, 810.7803
776.5460, 1012.192
777.6890, 1166.232
778.8320, 1195.415
779.9750, 1399.614
781.1180, 1415.728
782.2610, 1605.877
783.4040, 1776.947
784.5460, 1770.657
785.6890, 1759.590
786.8310, 1773.372
787.9730, 1760.562
789.1150, 1730.670
790.2560, 1714.502
791.3980, 1619.546
792.5390, 1500.851
793.6810, 1378.859
794.8220, 1369.488
795.9630, 1362.462
797.1030, 1279.419
798.2440, 1227.359
799.3840, 1189.283
800.5240, 1233.203
801.6650, 1273.086
802.8040, 1382.964
803.9440, 1546.827
805.0840, 1643.674
806.2230, 1806.507
807.3630, 1993.326
808.5020, 2134.130
809.6410, 2436.924
810.7790, 2597.703
811.9180, 2920.469
813.0570, 3248.224
814.1950, 3569.966
815.3330, 3894.695
816.4710, 3984.415
817.6090, 4129.123
818.7470, 4611.819
819.8840, 5094.506
821.0220, 5475.181
822.1590, 5736.249
823.2960, 5937.884
824.4330, 6019.152
825.5690, 6056.791
826.7060, 5954.421
827.8420, 5820.043
828.9790, 5296.655
830.1150, 4714.264
831.2510, 4277.860
832.3860, 3820.453
833.5220, 3286.039
834.6570, 2991.617
835.7930, 2398.192
836.9280, 2248.760
838.0630, 1871.322
839.1980, 1675.880
840.3320, 1434.434
841.4670, 1279.982
842.6010, 1140.527
843.7350, 965.0684
844.8690, 930.6064
846.0030, 772.1416
847.1370, 710.6738
848.2700, 530.2051
849.4040, 428.7334
850.5370, 505.2598
851.6700, 343.7861
852.8030, 331.3105
853.9360, 130.8340
855.0680, 219.3584
856.2000, 121.8828
857.3330, 126.4072
858.4650, 81.93164
859.5970, 68.54785
860.7290, 170.9854
861.8600, 92.51465
862.9920, 59.04590
864.1230, 118.5791
865.2540, 5.883789
866.3850, 48.65527
867.5160, 94.19824
868.6460, 198.7646
869.7770, 139.3691
870.9070, 156.0293
872.0370, 132.7090
873.1670, 40.43848
874.2970, 95.22559
875.4270, 59.07520
876.5570, 106.9873
877.6860, 332.9795
878.8150, 300.0713
879.9440, 357.2891
881.0730, 419.5693
882.2020, 317.9512
883.3300, 432.3867
884.4590, 355.8750
885.5870, 458.4287
886.7150, 387.0674
887.8430, 327.8125
888.9710, 385.6455
890.0990, 168.5898
891.2260, 264.6650
892.3530, 92.83691
893.4810, 79.11426
894.6080, 118.4854
895.7340, 43.07715
896.8610, 98.56836
897.9880, 3.022461
899.1140, 34.33789
900.2400, 99.32422
901.3660, 47.03125
902.4920, 104.8008
903.6180, 89.58496
904.7430, 20.49316
905.8690, 26.41309
906.9940, 16.41113
908.1190, 12.53125
909.2440, 15.59766
910.3690, 56.22559
911.4930, 54.03613
912.6180, 159.8203
913.7420, 56.65625
914.8660, 102.4873
915.9900, 108.3457
917.1140, 70.23242
918.2380, 122.1240
919.3610, 46.03906
920.4850, 88.95605
921.6080, 103.8955
922.7310, 10.13770
923.8540, 124.8145
924.9760, 165.1953
926.0990, 50.51855
927.2210, 9.742188
928.3440, 60.30664
929.4660, 21.62891
930.5880, 162.4414
931.7090, 222.5400
932.8310, 301.6553
933.9520, 356.7949
935.0740, 380.9492
936.1950, 500.1172
937.3160, 518.3008
938.4360, 542.4980
939.5570, 596.7109
940.6780, 689.9473
941.7980, 793.2314
942.9180, 871.5371
944.0380, 881.8721
945.1580, 1076.223
946.2780, 1381.588
947.3970, 1437.970
948.5170, 1677.367
949.6360, 1880.778
950.7550, 2302.208
951.8740, 2879.652
952.9930, 3200.115
954.1110, 3770.593
955.2300, 4113.088
956.3480, 4878.598
957.4660, 5478.127
958.5840, 6256.672
959.7020, 7013.235
960.8190, 8078.814
961.9370, 9045.427
963.0540, 10207.06
964.1710, 10828.71
965.2880, 11323.37
966.4050, 11527.05
967.5220, 11754.76
968.6380, 11351.47
969.7550, 11094.20
970.8710, 10835.96
971.9870, 10876.72
973.1030, 10761.50
974.2190, 10728.30
975.3340, 10907.12
976.4500, 11330.95
977.5650, 11570.80
978.6800, 11978.66
979.7950, 12039.54
980.9100, 12106.44
982.0250, 11775.36
983.1390, 10903.28
984.2530, 9941.234
985.3680, 8844.198
986.4820, 7619.178
987.5950, 6592.177
988.7090, 5537.189
989.8230, 4769.221
990.9360, 4262.270
992.0490, 3759.335
993.1620, 3372.416
994.2750, 3030.514
995.3880, 2836.627
996.5010, 2923.758
997.6130, 2873.905
998.7250, 2859.070
999.8370, 2903.075
1000.949, 3122.281
1002.061, 3399.504
1003.173, 3824.240
1004.284, 4031.371
1005.396, 4566.639
1006.507, 4992.971
1007.618, 5467.270
1008.729, 5854.584
1009.839, 6112.990
1010.950, 6001.332
1012.060, 5908.688
1013.171, 5601.500
1014.281, 5089.883
1015.391, 4849.655
1016.500, 4274.064
1017.610, 3887.482
1018.719, 3401.027
1019.829, 3004.438
1020.938, 2500.408
1022.047, 2235.131
1023.156, 1894.905
1024.264, 1673.777
1025.373, 1464.936
1026.481, 1202.783
1027.589, 1183.298
1028.697, 1065.858
1029.805, 1075.095
1030.913, 883.8701
1032.020, 912.6797
1033.128, 948.2539
1034.235, 686.9600
1035.342, 764.5098
1036.449, 809.0654
1037.556, 815.6367
1038.663, 873.2822
1039.769, 787.5625
1040.875, 796.2725
1041.981, 749.2266
1043.087, 912.8682
1044.193, 837.4160
1045.299, 640.3252
1046.404, 774.9873
1047.510, 724.4941
1048.615, 646.5059
1049.720, 753.4258
1050.825, 505.3955
1051.930, 598.2520
1053.034, 736.3477
1054.139, 608.3945
1055.243, 414.3203
1056.347, 550.4561
1057.451, 405.1650
1058.555, 690.9346
1059.658, 515.9844
1060.762, 497.3086
1061.865, 564.9131
1062.968, 619.8828
1064.071, 571.5254
1065.174, 542.9580
1066.277, 474.2891
1067.380, 493.0635
1068.482, 580.6777
1069.584, 560.2930
1070.686, 604.0898
1071.788, 610.4980
1072.890, 642.8389
1073.992, 600.4053
1075.093, 602.3926
1076.194, 563.9932
1077.295, 469.6865
1078.396, 505.3066
1079.497, 454.0293
1080.598, 536.6494
1081.698, 574.2705
1082.799, 416.1318
1083.899, 373.7510
1084.999, 394.6904
1086.099, 343.3066
1087.199, 382.2793
1088.298, 229.8936
1089.398, 294.9414
1090.497, 293.5508
1091.596, 201.6982
1092.695, 212.8457
1093.794, 321.7822
1094.892, 167.4365
1095.991, 219.0898
1097.089, 102.7432
1098.187, 105.3340
1099.285, 202.0879
1100.383, 272.9150
1101.481, 50.51172
1102.579, 109.0928
1103.676, 131.8408
1104.773, 240.4170
1105.870, 123.9893
1106.967, 93.55762
1108.064, 162.1211
1109.161, 247.6807
1110.257, 8.235352
1111.353, 103.7871
1112.449, 49.43457
1113.545, 97.97656
1114.641, 77.51270
1115.737, 95.04590
1116.832, 225.7471
1117.928, 173.2695
1119.023, 197.9326
1120.118, 237.4434
1121.213, 153.1396
1122.308, 139.6475
1123.402, 229.3184
1124.497, 142.8154
1125.591, 233.3047
1126.685, 255.7891
1127.779, 93.26465
1128.873, 133.9951
1129.967, 117.6924
1131.060, 149.8213
1132.153, 58.50488
1133.247, 122.1553
1134.340, 32.39258
1135.433, 69.97266
1136.525, 103.3975
1137.618, 22.75879
1138.710, 86.11035
1139.802, 63.45508
1140.895, 18.79102
1141.987, 75.11621
1143.078, 174.4336
1144.170, 12.87500
1145.261, 46.41016
1146.353, 90.91406
1147.444, 150.3115
1148.535, 56.52832
1149.626, 21.97559
1150.716, 35.59570
1151.807, 75.94141
1152.897, 9.875977
1153.988, 23.26953
1155.078, 88.20898
1156.168, 168.8506
1157.257, 137.5781
1158.347, 62.55469
1159.436, 50.51953
1160.526, 45.56152
1161.615, 104.8311
1162.704, 5.921875
1163.793, 53.95703
1164.881, 30.83105
1165.970, 78.26270
1167.058, 69.54199
1168.147, 65.51172
1169.235, 49.34277
1170.323, 4.611328
1171.410, 37.14258
1172.498, 11.05859
1173.585, 56.71484
1174.673, 103.4756
1175.760, 25.25391
1176.847, 150.0273
1177.934, 171.8242
1179.020, 79.62109
1180.107, 29.42773
1181.193, 42.24121
1182.279, 108.0547
1183.365, 56.88281
1184.451, 32.70410
1185.537, 168.5303
1186.623, 13.36523
1187.708, 139.1807
1188.793, 47.13477
1189.878, 18.95117
1190.963, 121.7500
1192.048, 98.58887
1193.133, 134.3623
1194.217, 27.87402
1195.302, 8.849609
1196.386, 6.450195
1197.470, 58.22168
1198.554, 109.8789
1199.638, 159.5215
1200.721, 131.1494
1201.805, 268.7637
1202.888, 4.635742
1203.971, 104.0645
1205.054, 0.9804690
1206.137, 24.55566
1207.219, 88.07812
1208.302, 114.4854
1209.384, 83.42383
1210.466, 191.8809
1211.548, 153.5518
1212.630, 55.03125
1213.712, 161.3633
1214.794, 46.68164
1215.875, 141.1406
1216.956, 43.42578
1218.037, 167.8301
1219.118, 36.08301
1220.199, 176.4004
1221.280, 28.98828
1222.360, 29.18848
1223.441, 27.62988
1224.521, 105.5059
1225.601, 10.62695
1226.681, 105.8213
1227.760, 143.9014
1228.840, 82.03027
1229.919, 64.30176
1230.999, 119.6592
1232.078, 165.1846
1233.157, 83.43848
1234.236, 196.9668
1235.314, 182.0547
1236.393, 162.0635
1237.471, 252.1943
1238.549, 182.1240
1239.627, 192.1211
1240.705, 129.2471
1241.783, 105.2100
1242.860, 270.5020
1243.938, 313.3906
1245.015, 271.4688
1246.092, 90.43457
1247.169, 188.2744
1248.246, 98.06250
1249.323, 273.4648
1250.399, 89.21680
1251.475, 277.1006
1252.552, 96.82227
1253.628, 154.7832
1254.703, 178.4707
1255.779, 153.1631
1256.855, 158.8994
1257.930, 77.86621
1259.005, 84.25781
1260.080, 3.125977
1261.155, 92.54980
1262.230, 99.11914
1263.305, 179.1621
1264.379, 193.1973
1265.454, 208.9736
1266.528, 274.4766
1267.602, 243.9141
1268.676, 198.3809
1269.750, 211.9912
1270.823, 253.3506
1271.897, 198.7080
1272.970, 62.17480
1274.043, 190.1152
1275.116, 63.78320
1276.189, 173.0742
1277.261, 162.8711
1278.334, 84.20703
1279.406, 86.44043
1280.478, 123.3242
1281.550, 102.1133
1282.622, 20.64355
1283.694, 220.3643
1284.766, 113.4717
1285.837, 13.93555
1286.908, 237.0898
1287.979, 181.3574
1289.050, 108.5830
1290.121, 19.87012
1291.192, 123.4170
1292.262, 272.1768
1293.333, 180.2148
1294.403, 158.0850
1295.473, 188.7305
1296.543, 94.99512
1297.613, 205.5078
1298.682, 159.6660
1299.752, 86.25000
1300.821, 170.6426
1301.890, 240.8428
1302.959, 132.6807
1304.028, 134.1318
1305.096, 229.0713
1306.165, 204.9092
1307.233, 212.2930
1308.301, 218.3525
1309.370, 273.8848
1310.437, 243.7041
1311.505, 247.4551
1312.573, 143.2109
1313.640, 249.0381
1314.708, 227.9072
1315.775, 312.1260
1316.842, 104.8711
1317.908, 158.5342
1318.975, 157.7275
1320.042, 122.3594
1321.108, 160.9775
1322.174, 149.1113
1323.240, 149.8887
1324.306, 145.8945
1325.372, 163.7354
1326.438, 137.1230
1327.503, 154.6553
1328.568, 166.1768
1329.634, 141.6836
1330.699, 155.1768
1331.763, 178.9648
1332.828, 18.48438
1333.893, 201.7100
1334.957, 70.16992
1336.021, 125.6982
1337.085, 17.11133
1338.149, 102.4062
1339.213, 48.01758
1340.277, 90.38184
1341.340, 206.5068
1342.404, 179.8457
1343.467, 83.85156
1344.530, 195.1621
1345.593, 89.10352
1346.655, 148.6582
1347.718, 102.7275
1348.780, 39.00391
1349.843, 126.6992
1350.905, 223.3760
1351.967, 137.2256
1353.028, 198.3379
1354.090, 95.44336
1355.152, 173.9297
1356.213, 104.0615
1357.274, 66.01660
1358.335, 40.88281
1359.396, 19.13574
1360.457, 62.12793
1361.517, 17.00391
1362.578, 94.02539
1363.638, 109.0781
1364.698, 76.14453
1365.758, 125.1221
1366.818, 100.1250
1367.878, 66.06250
1368.937, 101.1152
1369.997, 29.92773
1371.056, 110.8037
1372.115, 61.65723
1373.174, 84.55957
1374.232, 112.3135
1375.291, 204.1865
1376.350, 7.794922
1377.408, 161.5361
1378.466, 22.92969
1379.524, 207.6875
1380.582, 59.20508
1381.640, 188.9521
1382.697, 188.8730
1383.754, 110.5225
1384.812, 51.16016
1385.869, 129.5254
1386.926, 147.9014
1387.983, 48.17285
1389.039, 183.1758
1390.096, 24.53711
1391.152, 164.0742
1392.208, 90.61133
1393.264, 122.3623
1394.320, 173.8916
1395.376, 154.5801
1396.431, 85.93555
1397.487, 197.4932
1398.542, 123.9639
1399.597, 224.4199
1400.652, 202.4785
1401.707, 40.11230
1402.762, 46.41797
1403.816, 26.83398
1404.871, 117.3477
1405.925, 109.4717
1406.979, 13.59180
1408.033, 110.9150
1409.086, 59.15527
1410.140, 96.74512
1411.194, 47.05762
1412.247, 49.22461
1413.300, 116.7783
1414.353, 85.97363
1415.406, 82.21680
1416.458, 57.29004
1417.511, 20.22754
1418.563, 158.9238
1419.616, 108.0283
1420.668, 153.3896
1421.720, 5.486328
1422.772, 52.53418
1423.823, 12.31348
1424.875, 9.618164
1425.926, 35.31348
1426.977, 14.93848
1428.028, 122.9521
1429.079, 111.8281
1430.130, 62.31738
1431.180, 35.48535
1432.231, 117.2656
1433.281, 10.02832
1434.331, 53.77539
1435.381, 124.5088
1436.431, 64.23438
1437.481, 129.9590
1438.530, 84.40723
1439.580, 33.15723
1440.629, 73.20605
1441.678, 95.98340
1442.727, 96.62012
1443.776, 72.31543
1444.824, 187.0469
1445.873, 192.7959
1446.921, 153.5498
1447.969, 127.2881
1449.017, 205.0107
1450.065, 174.1699
1451.113, 256.7441
1452.160, 167.9473
1453.208, 178.3047
1454.255, 192.9287
1455.302, 125.5078
1456.349, 163.0996
1457.396, 159.7422
1458.443, 175.0410
1459.489, 82.77930
1460.535, 198.4131
1461.582, 75.08203
1462.628, 204.1523
1463.674, 119.9414
1464.719, 61.82324
1465.765, 197.1963
1466.810, 114.7422
1467.856, 238.9912
1468.901, 211.0205
1469.946, 208.1240
1470.991, 163.6719
1472.035, 53.41895
1473.080, 58.09277
1474.124, 109.2725
1475.169, 175.6504
1476.213, 246.6748
1477.257, 195.7119
1478.300, 139.4150
1479.344, 209.6143
1480.388, 28.99512
1481.431, 159.1357
1482.474, 121.4951
1483.517, 220.8516
1484.560, 80.62500
1485.603, 20.85645
1486.645, 107.4180
1487.688, 215.1768
1488.730, 98.81250
1489.772, 92.59180
1490.814, 135.3857
1491.856, 95.89453
1492.898, 256.0537
1493.939, 77.17188
1494.981, 105.9316
1496.022, 202.1836
1497.063, 118.4023
1498.104, 75.01172
1499.145, 10.64746
1500.186, 73.78125
1501.226, 186.3428
1502.266, 156.0547
1503.307, 203.9443
1504.347, 6.432617
1505.387, 100.0957
1506.426, 81.94824
1507.466, 75.23340
1508.505, 119.5586
1509.545, 196.3291
1510.584, 196.0654
1511.623, 150.7656
1512.662, 182.1016
1513.700, 191.2979
1514.739, 157.8779
1515.777, 127.8574
1516.815, 128.3340
1517.854, 49.80859
1518.892, 131.5166
1519.929, 57.20703
1520.967, 3.405273
1522.004, 82.07422
1523.042, 152.3330
1524.079, 132.7021
1525.116, 117.7070
1526.153, 170.6963
1527.190, 3.782227
1528.226, 89.73438
1529.263, 62.80176
1530.299, 163.5322
1531.335, 182.8525
1532.371, 78.75391
1533.407, 84.83301
1534.443, 88.29590
1535.478, 94.91797
1536.514, 170.0479
1537.549, 52.41797
1538.584, 135.6729
1539.619, 55.82520
1540.654, 180.8672
1541.689, 86.68164
1542.723, 65.46484
1543.757, 147.6143
1544.792, 6.750000
1545.826, 56.82520
1546.860, 57.02930
1547.893, 194.5811
1548.927, 190.3721
1549.960, 218.8311
1550.994, 387.3838
1552.027, 408.7207
1553.060, 525.9004
1554.093, 714.4131
1555.126, 625.0723
1556.158, 516.2432
1557.191, 214.5166
1558.223, 212.1562
1559.255, 172.1367
1560.287, 189.9414
1561.319, 95.13281
1562.350, 1.246094
1563.382, 136.4365
1564.413, 0.0000000E+00
##END=



