##NAMES=Andalusite
##RRUFFID=R050561
##IDEAL CHEMISTRY=Al_2_SiO_5_
##LOCALITY=Cargo Muchacho Mountain, Imperial County, California
##OWNER=RRUFF
##SOURCE=Dave Bunk Minerals
##DESCRIPTION=Brown coarsely crystalline massive
##STATUS=The identification of this mineral has been confirmed by X-ray diffraction and chemical analysis
##URL=rruff.info/R050561
##MEASURED CHEMISTRY=(Al_1.98_Fe^3+^_0.02_)_Î£=2_Si_1.00_O_5_
##PIN_ID=M00245
##ORIENTATION=Laser parallel to -b* (0 -1 0). Fiducial mark perpendicular to laser is parallel to -c [0 0 -1]
157.4550, 0.0000000E+00
158.6810, 10.89893
159.9080, 83.68457
161.1340, 0.1787110
162.3590, 100.7295
163.5850, 13.08789
164.8110, 188.3096
166.0360, 233.1602
167.2610, 226.6963
168.4860, 141.3975
169.7110, 245.5303
170.9360, 268.7432
172.1610, 74.73340
173.3850, 14.74805
174.6100, 24.91309
175.8340, 64.94043
177.0580, 15.00781
178.2820, 16.57324
179.5050, 56.23438
180.7290, 122.2422
181.9520, 73.73535
183.1760, 169.6123
184.3990, 154.7637
185.6220, 339.1426
186.8450, 596.6816
188.0670, 802.3301
189.2900, 893.0371
190.5120, 1372.761
191.7340, 1651.457
192.9560, 1781.093
194.1780, 1733.627
195.4000, 1726.000
196.6220, 1639.144
197.8430, 1721.000
199.0640, 1697.523
200.2860, 1808.679
201.5070, 2006.434
202.7270, 2170.762
203.9480, 1971.643
205.1690, 1296.056
206.3890, 864.3301
207.6090, 745.7764
208.8290, 583.8125
210.0490, 344.4463
211.2690, 172.6562
212.4890, 280.5811
213.7080, 157.8799
214.9280, 250.6973
216.1470, 96.01758
217.3660, 107.8262
218.5850, 203.1084
219.8030, 158.8545
221.0220, 176.0537
222.2400, 150.6934
223.4590, 240.7656
224.6770, 153.2607
225.8950, 348.1709
227.1120, 201.4912
228.3300, 427.2119
229.5480, 467.3252
230.7650, 496.7402
231.9820, 558.1807
233.1990, 593.6621
234.4160, 779.2197
235.6330, 808.8711
236.8490, 987.6338
238.0660, 1182.526
239.2820, 1327.547
240.4980, 1620.693
241.7140, 1710.005
242.9300, 1773.491
244.1460, 1716.160
245.3610, 1568.019
246.5770, 1396.072
247.7920, 1062.325
249.0070, 805.7832
250.2220, 655.4482
251.4370, 334.3242
252.6510, 275.4150
253.8660, 168.7295
255.0800, 57.52441
256.2940, 87.96191
257.5080, 92.37695
258.7220, 165.6191
259.9360, 184.1943
261.1490, 165.2754
262.3630, 150.0391
263.5760, 110.5801
264.7890, 24.29004
266.0020, 3.832031
267.2150, 75.62988
268.4270, 209.4434
269.6400, 368.8418
270.8520, 532.4160
272.0640, 856.1680
273.2760, 1229.098
274.4880, 1554.207
275.7000, 2303.497
276.9120, 2891.967
278.1230, 3763.621
279.3340, 4525.453
280.5450, 5596.469
281.7560, 6805.666
282.9670, 8196.519
284.1780, 10371.62
285.3880, 11477.37
286.5980, 13509.30
287.8090, 15422.42
289.0190, 18271.72
290.2290, 20694.21
291.4380, 22955.88
292.6480, 23603.74
293.8570, 22721.78
295.0670, 20118.00
296.2760, 16443.41
297.4850, 12565.99
298.6930, 9007.766
299.9020, 6569.721
301.1110, 4430.857
302.3190, 3127.176
303.5270, 2126.086
304.7350, 1547.193
305.9430, 1283.126
307.1510, 1292.896
308.3580, 1446.660
309.5660, 2227.778
310.7730, 3308.292
311.9800, 4532.094
313.1870, 5807.148
314.3940, 6921.555
315.6010, 8497.303
316.8070, 10513.37
318.0130, 13378.75
319.2200, 16462.06
320.4260, 19449.48
321.6310, 21324.07
322.8370, 21206.61
324.0430, 18871.42
325.2480, 15872.49
326.4540, 12123.81
327.6590, 9063.381
328.8640, 6596.193
330.0680, 4717.244
331.2730, 3561.527
332.4780, 2602.038
333.6820, 2095.773
334.8860, 1716.727
336.0900, 1779.896
337.2940, 1466.277
338.4980, 1475.863
339.7010, 1500.657
340.9050, 1692.651
342.1080, 1796.844
343.3110, 2143.232
344.5140, 2436.814
345.7170, 3178.590
346.9200, 3795.555
348.1220, 4839.709
349.3240, 5935.750
350.5270, 7145.483
351.7290, 8747.591
352.9310, 10332.25
354.1320, 12145.28
355.3340, 14418.05
356.5350, 16523.75
357.7370, 18497.83
358.9380, 19704.22
360.1390, 19820.79
361.3400, 18620.00
362.5400, 16402.17
363.7410, 13926.62
364.9410, 11249.18
366.1410, 9022.887
367.3410, 7104.752
368.5410, 5737.771
369.7410, 4548.941
370.9400, 3785.264
372.1400, 3230.734
373.3390, 2715.354
374.5380, 2397.121
375.7370, 2011.032
376.9360, 1690.091
378.1350, 1402.936
379.3330, 1183.647
380.5310, 874.1475
381.7300, 680.7930
382.9280, 460.5859
384.1260, 567.5264
385.3230, 493.6133
386.5210, 577.8457
387.7180, 677.2256
388.9160, 709.7510
390.1130, 804.4209
391.3100, 1086.237
392.5060, 1025.808
393.7030, 1075.302
394.9000, 1033.550
396.0960, 788.9414
397.2920, 745.4746
398.4880, 588.1514
399.6840, 564.5137
400.8800, 577.4678
402.0750, 556.5557
403.2710, 648.7744
404.4660, 862.1221
405.6610, 1044.597
406.8560, 1334.199
408.0510, 1664.927
409.2450, 1806.781
410.4400, 2162.702
411.6340, 2445.809
412.8280, 2773.040
414.0220, 3172.396
415.2160, 3784.877
416.4100, 4214.482
417.6030, 4662.212
418.7970, 5080.062
419.9900, 5244.038
421.1830, 5052.135
422.3760, 4774.354
423.5690, 4451.694
424.7610, 4136.156
425.9540, 3785.737
427.1460, 3756.440
428.3380, 3697.263
429.5300, 3479.203
430.7220, 3709.265
431.9140, 3774.445
433.1050, 3947.742
434.2970, 3900.159
435.4880, 4047.692
436.6790, 4209.346
437.8700, 4309.116
439.0610, 4433.004
440.2510, 4558.008
441.4420, 4950.131
442.6320, 4996.370
443.8220, 5107.725
445.0120, 5327.195
446.2020, 5105.784
447.3910, 5284.532
448.5810, 5397.445
449.7700, 5399.520
450.9600, 5666.766
452.1490, 5752.205
453.3370, 5542.807
454.5260, 4679.562
455.7150, 4057.482
456.9030, 3322.558
458.0910, 2572.785
459.2800, 2127.163
460.4670, 1951.690
461.6550, 1649.367
462.8430, 1587.191
464.0300, 1340.166
465.2180, 1449.293
466.4050, 1186.564
467.5920, 1068.979
468.7790, 1048.535
469.9650, 966.2344
471.1520, 994.4238
472.3380, 1090.053
473.5250, 1094.172
474.7110, 1205.429
475.8970, 1286.821
477.0820, 1455.352
478.2680, 1643.017
479.4540, 1727.818
480.6390, 1817.767
481.8240, 1745.866
483.0090, 1600.112
484.1940, 1484.521
485.3780, 1328.127
486.5630, 1073.479
487.7470, 1045.863
488.9320, 527.0312
490.1160, 254.4160
491.3000, 1.006836
492.4830, 180.2100
493.6670, 369.2725
494.8500, 441.2627
496.0340, 633.2363
497.2170, 643.2939
498.4000, 657.4092
499.5820, 580.5957
500.7650, 498.8428
501.9480, 455.0938
503.1300, 243.3818
504.3120, 89.60840
505.4940, 92.73242
506.6760, 177.2725
507.8580, 306.4482
509.0390, 460.7520
510.2210, 702.1787
511.4020, 791.7236
512.5830, 839.3896
513.7640, 914.1689
514.9450, 985.0654
516.1250, 886.0752
517.3060, 964.1982
518.4860, 873.4355
519.6660, 770.7842
520.8460, 674.2461
522.0260, 567.8193
523.2060, 614.5029
524.3850, 348.2959
525.5650, 478.1992
526.7440, 594.2119
527.9230, 450.3320
529.1020, 353.5605
530.2810, 598.8945
531.4590, 586.3359
532.6380, 762.8838
533.8160, 992.5352
534.9940, 946.2920
536.1720, 1195.152
537.3500, 1345.115
538.5270, 1645.182
539.7050, 1916.350
540.8820, 2040.618
542.0590, 2507.989
543.2360, 3224.461
544.4130, 3467.032
545.5900, 3766.702
546.7660, 4529.469
547.9430, 4952.334
549.1190, 5474.296
550.2950, 5833.353
551.4710, 6171.505
552.6470, 6201.754
553.8220, 6204.098
554.9980, 5379.533
556.1730, 5199.062
557.3480, 4606.686
558.5230, 4073.400
559.6980, 3707.205
560.8730, 3526.100
562.0470, 3360.087
563.2220, 3374.161
564.3960, 3212.325
565.5700, 3302.577
566.7440, 3188.914
567.9170, 3502.346
569.0910, 3593.865
570.2640, 3646.491
571.4380, 3858.217
572.6110, 3850.058
573.7840, 3922.021
574.9570, 3965.144
576.1290, 3888.420
577.3020, 4089.835
578.4740, 4119.363
579.6460, 4057.021
580.8180, 4184.855
581.9900, 4301.814
583.1620, 4414.921
584.3330, 4254.156
585.5040, 4441.528
586.6760, 4492.051
587.8470, 4678.699
589.0180, 4774.446
590.1880, 4980.811
591.3590, 5326.973
592.5290, 5564.852
593.7000, 5719.459
594.8700, 6290.672
596.0400, 6232.119
597.2090, 6829.482
598.3790, 7172.917
599.5490, 7270.422
600.7180, 7961.996
601.8870, 8162.636
603.0560, 8641.341
604.2250, 8777.108
605.3940, 9167.940
606.5620, 9220.825
607.7300, 9544.775
608.8990, 9650.779
610.0670, 9588.838
611.2350, 9591.955
612.4020, 9444.126
613.5700, 9388.352
614.7370, 9234.630
615.9050, 8897.961
617.0720, 8797.342
618.2390, 8530.776
619.4060, 8060.272
620.5720, 8129.440
621.7390, 7661.932
622.9050, 7420.501
624.0710, 7138.475
625.2370, 6972.619
626.4030, 6478.945
627.5690, 6232.294
628.7340, 6096.959
629.9000, 5733.097
631.0650, 5628.129
632.2300, 5544.483
633.3950, 5240.867
634.5600, 5072.881
635.7240, 4673.170
636.8890, 4556.838
638.0530, 4403.736
639.2170, 4188.262
640.3810, 4151.789
641.5450, 3938.847
642.7080, 3896.739
643.8720, 3638.722
645.0350, 3708.987
646.1980, 3514.289
647.3610, 3428.145
648.5240, 3249.270
649.6870, 3074.627
650.8490, 2876.457
652.0120, 2430.180
653.1740, 2393.591
654.3360, 2143.020
655.4980, 2146.467
656.6600, 1952.931
657.8210, 2148.411
658.9830, 2033.906
660.1440, 2211.416
661.3050, 2343.940
662.4660, 2281.477
663.6270, 2375.023
664.7870, 2417.584
665.9480, 1994.152
667.1080, 1773.730
668.2680, 1526.317
669.4280, 1374.911
670.5880, 1230.514
671.7480, 1244.121
672.9070, 1258.734
674.0670, 1295.352
675.2260, 1247.973
676.3850, 1410.596
677.5440, 1532.222
678.7030, 1398.848
679.8610, 1556.476
681.0200, 1481.103
682.1780, 1594.727
683.3360, 1587.351
684.4940, 1637.972
685.6520, 1589.588
686.8090, 1865.199
687.9670, 1781.807
689.1240, 1826.407
690.2810, 1761.001
691.4380, 1825.587
692.5950, 1751.164
693.7520, 1891.733
694.9080, 1759.291
696.0650, 1857.838
697.2210, 1842.374
698.3770, 1747.898
699.5330, 1642.408
700.6880, 1727.904
701.8440, 1697.735
702.9990, 1775.852
704.1550, 1806.302
705.3100, 1855.735
706.4650, 1945.103
707.6190, 2010.869
708.7740, 2224.162
709.9290, 2231.672
711.0830, 2319.877
712.2370, 2513.789
713.3910, 2470.802
714.5450, 2439.001
715.6980, 2570.141
716.8520, 2470.606
718.0050, 2376.793
719.1580, 2160.000
720.3110, 1711.456
721.4640, 1581.300
722.6170, 1138.004
723.7700, 794.4727
724.9220, 464.7861
726.0740, 397.4736
727.2260, 197.8154
728.3780, 76.87500
729.5300, 52.57031
730.6810, 74.22266
731.8330, 86.70605
732.9840, 174.0586
734.1350, 28.48633
735.2860, 277.2627
736.4370, 221.7139
737.5880, 267.4775
738.7380, 445.5850
739.8880, 503.7402
741.0390, 545.9600
742.1890, 623.1191
743.3380, 583.1934
744.4880, 739.2139
745.6380, 677.1797
746.7870, 778.0898
747.9360, 680.9463
749.0850, 501.7451
750.2340, 629.4883
751.3830, 329.1738
752.5310, 339.8018
753.6800, 436.3721
754.8280, 355.8828
755.9760, 402.3340
757.1240, 191.7256
758.2720, 50.05469
759.4190, 43.29688
760.5670, 44.44629
761.7140, 15.49805
762.8610, 143.5674
764.0080, 64.82910
765.1550, 63.24414
766.3020, 209.8096
767.4480, 231.6074
768.5950, 132.6484
769.7410, 290.8818
770.8870, 202.3857
772.0330, 215.0850
773.1780, 110.9541
774.3240, 23.92285
775.4690, 146.9072
776.6140, 119.9717
777.7590, 42.09863
778.9040, 131.2656
780.0490, 67.46484
781.1940, 7.818359
782.3380, 26.80957
783.4820, 72.66016
784.6260, 79.27930
785.7700, 142.9268
786.9140, 189.0430
788.0580, 229.0771
789.2010, 244.0352
790.3450, 307.7363
791.4880, 344.8555
792.6310, 446.4639
793.7730, 471.1289
794.9160, 597.7217
796.0590, 725.2432
797.2010, 986.6904
798.3430, 1299.062
799.4850, 1463.364
800.6270, 1725.591
801.7690, 1921.743
802.9100, 2212.822
804.0520, 2524.826
805.1930, 2972.754
806.3340, 2984.607
807.4750, 3099.388
808.6160, 3392.092
809.7560, 3299.720
810.8970, 3487.271
812.0370, 3345.748
813.1770, 3344.148
814.3170, 3405.473
815.4570, 3489.721
816.5960, 3565.891
817.7360, 3627.985
818.8750, 3816.002
820.0140, 3801.941
821.1530, 3816.804
822.2920, 3634.589
823.4310, 3545.297
824.5690, 3421.926
825.7070, 3192.478
826.8460, 2936.952
827.9840, 2707.348
829.1220, 2566.664
830.2590, 2519.904
831.3970, 2466.066
832.5340, 2236.147
833.6710, 2134.152
834.8080, 1868.078
835.9450, 1745.924
837.0820, 1453.693
838.2190, 1216.382
839.3550, 825.9922
840.4910, 798.5234
841.6270, 524.9766
842.7630, 343.3496
843.8990, 390.6348
845.0350, 100.8350
846.1700, 181.9141
847.3060, 24.88477
848.4410, 7.285156
849.5760, 152.6123
850.7100, 124.1738
851.8450, 75.95312
852.9800, 15.07227
854.1140, 46.04688
855.2480, 222.3428
856.3820, 35.91113
857.5160, 122.6494
858.6500, 57.60547
859.7830, 86.74316
860.9170, 149.0781
862.0500, 44.64453
863.1830, 71.62305
864.3160, 5.234375
865.4480, 52.20703
866.5810, 112.8994
867.7130, 237.8135
868.8460, 139.9766
869.9780, 268.5137
871.1100, 317.8242
872.2410, 254.2061
873.3730, 430.5059
874.5050, 379.7314
875.6360, 367.8750
876.7670, 353.9443
877.8980, 527.9287
879.0290, 582.8398
880.1590, 628.6787
881.2900, 679.4590
882.4200, 767.9863
883.5500, 670.8047
884.6800, 906.3760
885.8100, 928.8750
886.9400, 891.3047
888.0690, 1107.661
889.1990, 1177.947
890.3280, 1295.163
891.4570, 1407.310
892.5860, 1606.386
893.7140, 1838.376
894.8430, 1918.674
895.9710, 2228.623
897.1000, 2389.475
898.2280, 2789.896
899.3560, 3227.124
900.4830, 3522.144
901.6110, 4289.116
902.7380, 4568.750
903.8660, 5396.879
904.9930, 6196.092
906.1200, 7320.266
907.2460, 8816.881
908.3730, 10885.62
909.5000, 13598.81
910.6260, 17165.34
911.7520, 21254.07
912.8780, 26259.39
914.0040, 31811.49
915.1290, 37738.89
916.2550, 44222.43
917.3800, 49869.37
918.5050, 54138.21
919.6300, 55168.86
920.7550, 53146.99
921.8800, 48588.84
923.0040, 42374.41
924.1290, 36554.48
925.2530, 32326.64
926.3770, 29060.08
927.5010, 26259.47
928.6250, 24058.82
929.7480, 21543.12
930.8720, 18820.37
931.9950, 16114.58
933.1180, 13569.74
934.2410, 11535.85
935.3640, 9755.928
936.4860, 8302.954
937.6090, 7190.935
938.7310, 6278.875
939.8530, 5692.770
940.9750, 5156.621
942.0970, 4536.432
943.2180, 4388.199
944.3400, 4054.927
945.4610, 3885.613
946.5820, 3876.258
947.7030, 3801.861
948.8240, 3785.426
949.9450, 3604.951
951.0650, 3434.438
952.1860, 3208.885
953.3060, 2935.295
954.4260, 2767.668
955.5460, 2472.002
956.6650, 2000.301
957.7850, 1657.402
958.9040, 1783.228
960.0230, 1802.347
961.1420, 1720.492
962.2610, 1235.363
963.3800, 1115.338
964.4990, 1050.404
965.6170, 1001.450
966.7350, 832.4619
967.8530, 877.6504
968.9710, 896.2266
970.0890, 966.3008
971.2070, 923.1826
972.3240, 1075.033
973.4410, 802.8545
974.5580, 1075.644
975.6750, 1013.402
976.7920, 975.1328
977.9090, 1061.885
979.0250, 1042.987
980.1410, 927.9355
981.2580, 1137.408
982.3740, 1008.137
983.4890, 807.1113
984.6050, 851.9365
985.7200, 819.5273
986.8360, 746.1270
987.9510, 889.3525
989.0660, 946.8105
990.1810, 891.1953
991.2950, 905.3027
992.4100, 911.9688
993.5240, 1087.727
994.6390, 931.6670
995.7530, 1176.723
996.8660, 1439.127
997.9800, 1551.049
999.0940, 1962.326
1000.207, 2420.785
1001.320, 2790.849
1002.433, 3093.922
1003.546, 3411.511
1004.659, 3723.172
1005.772, 3777.625
1006.884, 3975.433
1007.996, 3910.595
1009.108, 3835.142
1010.220, 3823.433
1011.332, 3860.759
1012.444, 3967.576
1013.555, 4075.932
1014.666, 4197.896
1015.777, 4472.247
1016.888, 4830.574
1017.999, 5203.043
1019.110, 5225.422
1020.220, 5295.279
1021.331, 5070.658
1022.441, 4699.465
1023.551, 4129.843
1024.661, 3740.794
1025.770, 3332.191
1026.880, 2896.588
1027.989, 2596.778
1029.098, 2270.864
1030.207, 2016.838
1031.316, 1779.287
1032.425, 1547.768
1033.533, 1412.316
1034.642, 1271.919
1035.750, 1145.548
1036.858, 1051.524
1037.966, 996.3584
1039.073, 966.0811
1040.181, 900.9229
1041.288, 852.3750
1042.396, 825.5488
1043.503, 738.8203
1044.610, 706.8477
1045.716, 666.0312
1046.823, 658.4863
1047.929, 612.2578
1049.036, 612.5195
1050.142, 725.2119
1051.248, 849.1953
1052.353, 1010.945
1053.459, 1162.753
1054.564, 1333.618
1055.670, 1756.500
1056.775, 2257.393
1057.880, 2804.295
1058.985, 3479.207
1060.089, 4239.125
1061.194, 5134.053
1062.298, 5780.986
1063.402, 6241.928
1064.506, 6311.877
1065.610, 6039.836
1066.713, 5227.803
1067.817, 4481.775
1068.920, 3465.759
1070.023, 2983.768
1071.126, 2296.796
1072.229, 1993.835
1073.332, 1664.891
1074.435, 1287.957
1075.537, 1237.262
1076.639, 1135.117
1077.741, 1125.213
1078.843, 1020.318
1079.945, 898.4375
1081.046, 921.6992
1082.148, 879.8955
1083.249, 877.1680
1084.350, 915.4463
1085.451, 917.9521
1086.551, 926.5986
1087.652, 979.2646
1088.752, 919.5479
1089.853, 939.7646
1090.953, 900.1582
1092.053, 859.5586
1093.152, 856.3262
1094.252, 832.7822
1095.351, 823.7070
1096.451, 822.3643
1097.550, 822.4160
1098.649, 820.7275
1099.748, 851.0498
1100.846, 867.5576
1101.945, 894.9082
1103.043, 1125.457
1104.141, 1026.867
1105.239, 1306.318
1106.337, 1363.712
1107.434, 1493.294
1108.532, 1505.763
1109.629, 1457.809
1110.726, 1455.534
1111.823, 1252.199
1112.920, 1223.693
1114.017, 1022.395
1115.113, 920.2705
1116.210, 603.8350
1117.306, 656.7793
1118.402, 474.6133
1119.498, 276.2588
1120.593, 377.2451
1121.689, 292.3828
1122.784, 353.1084
1123.879, 221.4541
1124.974, 213.1250
1126.069, 188.4014
1127.164, 169.5400
1128.259, 78.95117
1129.353, 59.63086
1130.447, 9.844727
1131.541, 110.7188
1132.635, 13.60156
1133.729, 35.08105
1134.822, 72.73242
1135.916, 152.3506
1137.009, 25.59570
1138.102, 92.93066
1139.195, 56.09473
1140.288, 62.56738
1141.380, 74.47461
1142.473, 84.48438
1143.565, 27.81641
1144.657, 33.93359
1145.749, 113.0078
1146.841, 65.71289
1147.932, 44.58105
1149.024, 48.64648
1150.115, 1.300781
1151.206, 25.98242
1152.297, 14.79102
1153.388, 21.34570
1154.479, 13.38770
1155.569, 25.32324
1156.659, 79.62500
1157.750, 16.58691
1158.839, 57.70703
1159.929, 19.02930
1161.019, 48.81641
1162.108, 79.61230
1163.198, 14.41797
1164.287, 28.63184
1165.376, 109.5654
1166.465, 8.489258
1167.553, 32.57520
1168.642, 35.47559
1169.730, 95.67676
1170.818, 24.26562
1171.906, 135.1943
1172.994, 111.1562
1174.082, 27.10742
1175.170, 46.95410
1176.257, 69.25879
1177.344, 17.69922
1178.431, 56.33887
1179.518, 61.54199
1180.605, 77.64648
1181.691, 1.474609
1182.778, 81.32324
1183.864, 95.29883
1184.950, 163.2812
1186.036, 181.1406
1187.122, 106.8301
1188.207, 174.5166
1189.292, 132.2451
1190.378, 44.12988
1191.463, 88.11426
1192.548, 69.74023
1193.632, 130.7012
1194.717, 81.42969
1195.801, 113.1240
1196.886, 105.7773
1197.970, 136.7871
1199.054, 92.75195
1200.137, 98.49023
1201.221, 104.5908
1202.305, 90.84180
1203.388, 128.0791
1204.471, 124.1904
1205.554, 139.0176
1206.637, 150.1807
1207.719, 90.57617
1208.802, 150.1387
1209.884, 62.08984
1210.966, 26.23730
1212.048, 45.94531
1213.130, 31.79590
1214.212, 34.44141
1215.293, 32.18652
1216.374, 33.70215
1217.456, 106.5176
1218.536, 50.01953
1219.617, 110.5117
1220.698, 31.99902
1221.778, 34.47559
1222.859, 25.03906
1223.939, 53.70508
1225.019, 152.6650
1226.099, 33.62500
1227.178, 22.99023
1228.258, 249.6484
1229.337, 168.2920
1230.417, 44.87109
1231.496, 86.21582
1232.574, 43.55371
1233.653, 80.98828
1234.732, 75.38672
1235.810, 125.7549
1236.888, 53.05273
1237.966, 84.34082
1239.044, 24.75781
1240.122, 7.061523
1241.199, 93.33984
1242.277, 168.6230
1243.354, 61.88184
1244.431, 44.13086
1245.508, 120.3672
1246.585, 52.60254
1247.661, 100.0732
1248.738, 27.25684
1249.814, 94.44141
1250.890, 74.61230
1251.966, 36.23145
1253.042, 67.87012
1254.117, 41.95605
1255.193, 133.0244
1256.268, 3.843750
1257.343, 108.1699
1258.418, 100.3936
1259.493, 124.3750
1260.567, 172.2236
1261.642, 110.1816
1262.716, 117.9453
1263.790, 140.8682
1264.864, 76.77539
1265.938, 105.4648
1267.011, 146.9277
1268.085, 88.37598
1269.158, 160.9053
1270.231, 64.72168
1271.304, 63.81543
1272.377, 145.4170
1273.450, 123.7500
1274.522, 55.07227
1275.594, 128.1787
1276.666, 181.0850
1277.738, 4.785156
1278.810, 78.36426
1279.882, 167.0605
1280.953, 71.84473
1282.025, 107.7637
1283.096, 171.8359
1284.167, 30.68164
1285.238, 94.26465
1286.308, 94.66699
1287.379, 60.07227
1288.449, 46.42871
1289.519, 176.1094
1290.589, 149.7021
1291.659, 202.3447
1292.729, 194.9961
1293.798, 25.13281
1294.868, 126.4199
1295.937, 99.66016
1297.006, 37.64746
1298.075, 211.7812
1299.143, 27.92969
1300.212, 94.68652
1301.280, 49.90234
1302.348, 65.96680
1303.416, 97.89844
1304.484, 29.61719
1305.552, 81.81641
1306.620, 1.956055
1307.687, 76.45117
1308.754, 148.0928
1309.821, 90.82812
1310.888, 109.1777
1311.955, 67.81836
1313.021, 66.39258
1314.088, 124.9424
1315.154, 108.2402
1316.220, 137.9736
1317.286, 128.4551
1318.352, 90.91309
1319.417, 67.34570
1320.483, 163.7568
1321.548, 73.14062
1322.613, 128.5029
1323.678, 46.84570
1324.743, 225.1660
1325.807, 165.4395
1326.872, 71.68359
1327.936, 26.09473
1329.000, 8.8867001E-02
1330.064, 43.23535
1331.128, 16.35547
1332.191, 50.32812
1333.255, 101.5186
1334.318, 92.56738
1335.381, 131.5967
1336.444, 191.6045
1337.507, 23.59082
1338.569, 48.54785
1339.632, 125.3516
1340.694, 90.20996
1341.756, 138.1641
1342.818, 112.9189
1343.880, 195.6357
1344.941, 93.33203
1346.003, 266.1729
1347.064, 366.8818
1348.125, 306.6484
1349.186, 314.4590
1350.247, 147.1064
1351.308, 120.9502
1352.368, 61.62207
1353.428, 107.2842
1354.489, 113.8008
1355.549, 102.6836
1356.608, 100.2754
1357.668, 113.8457
1358.727, 238.2227
1359.787, 198.9170
1360.846, 142.2236
1361.905, 256.6650
1362.964, 135.2188
1364.022, 181.6426
1365.081, 270.0938
1366.139, 144.8936
1367.197, 336.0088
1368.255, 189.9463
1369.313, 174.3643
1370.371, 217.6455
1371.428, 308.7441
1372.486, 255.7148
1373.543, 377.9385
1374.600, 120.6846
1375.657, 337.1504
1376.713, 314.0938
1377.770, 216.1201
1378.826, 281.2617
1379.882, 223.8506
1380.938, 311.6816
1381.994, 249.7070
1383.050, 157.9043
1384.106, 235.4629
1385.161, 227.3613
1386.216, 297.6250
1387.271, 207.1650
1388.326, 246.0879
1389.381, 241.9141
1390.435, 315.7500
1391.490, 197.2344
1392.544, 196.8486
1393.598, 239.6055
1394.652, 251.7598
1395.705, 210.4199
1396.759, 279.3350
1397.812, 143.8604
1398.866, 13.37012
1399.919, 163.1348
1400.972, 59.83496
1402.024, 213.2188
1403.077, 128.9756
1404.129, 182.7510
1405.181, 165.2129
1406.233, 153.6475
1407.285, 189.3154
1408.337, 151.0039
1409.389, 192.4023
1410.440, 215.0312
1411.491, 149.1602
1412.542, 227.3496
1413.593, 161.5117
1414.644, 173.5000
1415.695, 16.26172
1416.745, 99.54297
1417.795, 82.74609
1418.845, 102.2842
1419.895, 178.4248
1420.945, 148.0342
1421.995, 100.9980
1423.044, 31.83496
1424.093, 173.7979
1425.142, 240.7881
1426.191, 94.16797
1427.240, 39.85547
1428.289, 150.3135
1429.337, 88.89355
1430.385, 125.5664
1431.433, 141.4482
1432.481, 100.7148
1433.529, 170.5596
1434.577, 93.22461
1435.624, 75.45801
1436.672, 188.9766
1437.719, 130.5459
1438.766, 322.9180
1439.812, 163.2598
1440.859, 156.2656
1441.905, 259.7461
1442.952, 214.4863
1443.998, 237.0332
1445.044, 262.3496
1446.090, 184.3633
1447.135, 211.8271
1448.181, 289.2598
1449.226, 246.5811
1450.271, 342.0293
1451.316, 295.9434
1452.361, 348.2314
1453.405, 266.0586
1454.450, 193.2236
1455.494, 278.3027
1456.538, 378.0127
1457.582, 348.0420
1458.626, 258.2617
1459.670, 462.3525
1460.713, 168.7539
1461.757, 347.0205
1462.800, 201.5449
1463.843, 133.2959
1464.886, 180.9932
1465.928, 222.0273
1466.971, 89.16602
1468.013, 331.2344
1469.055, 181.4424
1470.097, 286.4033
1471.139, 124.4580
1472.181, 178.4951
1473.222, 292.5020
1474.263, 76.15430
1475.305, 111.0918
1476.346, 38.02734
1477.386, 110.9629
1478.427, 129.7793
1479.468, 70.68750
1480.508, 125.5752
1481.548, 142.3564
1482.588, 162.1426
1483.628, 164.1328
1484.668, 88.63184
1485.707, 127.4805
1486.747, 124.1660
1487.786, 84.45898
1488.825, 227.9619
1489.864, 72.37793
1490.902, 58.12793
1491.941, 72.62109
1492.979, 113.9746
1494.017, 89.43359
1495.055, 151.9756
1496.093, 3.933594
1497.131, 160.0254
1498.168, 119.1543
1499.206, 0.7949220
1500.243, 37.60352
1501.280, 9.497070
1502.317, 125.2930
1503.354, 67.44629
1504.390, 79.76074
1505.426, 164.5000
1506.463, 25.31934
1507.499, 77.13770
1508.535, 36.96094
1509.570, 135.7910
1510.606, 31.61328
1511.641, 29.52930
1512.676, 199.4102
1513.711, 198.3506
1514.746, 149.3008
1515.781, 10.23828
1516.816, 135.1592
1517.850, 151.0801
1518.884, 50.00098
1519.918, 139.4697
1520.952, 103.3564
1521.986, 203.1484
1523.019, 188.4170
1524.053, 169.9648
1525.086, 188.5332
1526.119, 152.1787
1527.152, 112.3545
1528.185, 109.7793
1529.217, 139.4238
1530.250, 142.7500
1531.282, 125.5049
1532.314, 30.24414
1533.346, 91.84668
1534.377, 59.48438
1535.409, 39.64746
1536.440, 123.1719
1537.472, 164.1475
1538.503, 210.2207
1539.534, 236.3350
1540.564, 166.3408
1541.595, 117.0068
1542.625, 8.736328
1543.656, 249.5215
1544.686, 84.76953
1545.716, 257.2803
1546.745, 80.54199
1547.775, 260.0049
1548.804, 241.2012
1549.834, 237.2949
1550.863, 418.7246
1551.892, 376.9980
1552.920, 456.9082
1553.949, 594.4668
1554.977, 482.5811
1556.006, 443.5742
1557.034, 215.0342
1558.062, 221.4229
1559.089, 222.7275
1560.117, 222.1875
1561.144, 143.8203
1562.172, 218.8574
1563.199, 108.3613
1564.226, 0.5751950
1565.252, 263.2471
1566.279, 53.92578
1567.305, 101.7949
1568.332, 93.32031
1569.358, 0.5869140
1570.384, 0.0000000E+00
##END=



