##NAMES=Andradite
##RRUFFID=R050377
##IDEAL CHEMISTRY=Ca_3_Fe^3+^_2_(SiO_4_)_3_
##LOCALITY=Zlatoust District, South Urals, Russia
##OWNER=RRUFF
##SOURCE=University of Arizona Mineral Museum
##DESCRIPTION=Dark red cubes
##STATUS=The identification of this mineral has been confirmed by X-ray diffraction and chemical analysis
##URL=rruff.info/R050377
##MEASURED CHEMISTRY=Ca_3.00_(Fe^3+^_1.48_Ti_0.31_Mg_0.14_Zr_0.07_)_Σ=2_(Si_2.73_Al_0.24_Ti_0.03_)_Σ=3_O_12_
##PIN_ID=M00110
##ORIENTATION=Laser parallel to a* (1 0 0). Fiducial mark perpendicular to laser is parallel to c [0 0 1]
99.64900, 0.0000000E+00
100.8830, 212.8838
102.1160, 91.43359
103.3490, 37.57910
104.5820, 28.53711
105.8150, 347.7305
107.0470, 620.9570
108.2800, 785.3760
109.5120, 1196.675
110.7440, 812.8428
111.9760, 329.0820
113.2080, 53.74805
114.4400, 82.31738
115.6710, 308.3643
116.9030, 302.5391
118.1340, 313.5459
119.3650, 159.1318
120.5960, 32.06348
121.8270, 221.1318
123.0580, 317.1562
124.2880, 386.9814
125.5190, 464.6963
126.7490, 359.5234
127.9790, 543.0195
129.2090, 493.8818
130.4390, 546.0361
131.6680, 630.4180
132.8980, 735.9609
134.1270, 689.6104
135.3560, 592.3125
136.5850, 867.0176
137.8140, 1022.648
139.0430, 1586.122
140.2710, 1767.376
141.5000, 1381.357
142.7280, 1416.032
143.9560, 1215.370
145.1840, 1222.349
146.4120, 1048.937
147.6390, 864.1172
148.8670, 682.8740
150.0940, 618.1885
151.3210, 562.1504
152.5490, 649.4121
153.7750, 596.2891
155.0020, 544.6748
156.2290, 612.5752
157.4550, 421.0010
158.6810, 565.9385
159.9080, 632.3701
161.1340, 779.2822
162.3590, 960.6582
163.5850, 1276.481
164.8110, 1729.742
166.0360, 1942.429
167.2610, 2531.529
168.4860, 2681.033
169.7110, 2502.930
170.9360, 2267.209
172.1610, 1983.863
173.3850, 1499.785
174.6100, 1307.685
175.8340, 1222.579
177.0580, 881.5107
178.2820, 846.5234
179.5050, 773.6367
180.7290, 661.8740
181.9520, 650.2480
183.1760, 406.7773
184.3990, 553.6123
185.6220, 505.6807
186.8450, 613.9463
188.0670, 755.4570
189.2900, 679.1641
190.5120, 1018.060
191.7340, 947.1641
192.9560, 937.4639
194.1780, 1135.029
195.4000, 1055.911
196.6220, 1103.032
197.8430, 1191.344
199.0640, 1131.850
200.2860, 1060.550
201.5070, 1125.443
202.7270, 1312.533
203.9480, 1065.817
205.1690, 735.2969
206.3890, 343.9834
207.6090, 265.9814
208.8290, 410.3809
210.0490, 368.2412
211.2690, 563.5869
212.4890, 592.4619
213.7080, 581.7500
214.9280, 713.2480
216.1470, 761.9102
217.3660, 929.7295
218.5850, 1007.705
219.8030, 1098.837
221.0220, 1257.125
222.2400, 1317.568
223.4590, 1490.166
224.6770, 1632.921
225.8950, 1750.829
227.1120, 1926.891
228.3300, 2313.104
229.5480, 2466.472
230.7650, 2478.990
231.9820, 2663.660
233.1990, 2573.479
234.4160, 3066.446
235.6330, 2020.561
236.8490, 1936.821
238.0660, 2211.147
239.2820, 1680.758
240.4980, 1720.521
241.7140, 1385.308
242.9300, 1416.283
244.1460, 1222.399
245.3610, 1137.654
246.5770, 1257.320
247.7920, 1429.248
249.0070, 1274.336
250.2220, 1463.076
251.4370, 1413.967
252.6510, 1600.867
253.8660, 2187.250
255.0800, 2162.427
256.2940, 2859.318
257.5080, 2562.947
258.7220, 2760.939
259.9360, 3074.275
261.1490, 2970.938
262.3630, 2790.910
263.5760, 2699.179
264.7890, 2639.731
266.0020, 2566.795
267.2150, 2601.620
268.4270, 2195.232
269.6400, 2155.613
270.8520, 2138.434
272.0640, 2001.925
273.2760, 1926.198
274.4880, 1734.849
275.7000, 1816.551
276.9120, 1760.323
278.1230, 1870.434
279.3340, 1669.741
280.5450, 1725.525
281.7560, 1784.646
282.9670, 2104.811
284.1780, 2163.877
285.3880, 2432.120
286.5980, 2819.541
287.8090, 2869.090
289.0190, 3169.998
290.2290, 3193.920
291.4380, 3241.048
292.6480, 3473.293
293.8570, 3611.696
295.0670, 3802.256
296.2760, 3986.967
297.4850, 4209.828
298.6930, 4385.719
299.9020, 4576.133
301.1110, 4788.293
302.3190, 4937.735
303.5270, 5197.318
304.7350, 5381.038
305.9430, 5541.894
307.1510, 5608.885
308.3580, 5534.006
309.5660, 5554.258
310.7730, 5447.639
311.9800, 5402.811
313.1870, 5295.926
314.3940, 5116.938
315.6010, 5160.207
316.8070, 4766.899
318.0130, 4889.617
319.2200, 5047.387
320.4260, 4783.834
321.6310, 4731.190
322.8370, 4880.738
324.0430, 4872.986
325.2480, 4968.944
326.4540, 5260.598
327.6590, 5273.173
328.8640, 5591.203
330.0680, 5935.449
331.2730, 6444.804
332.4780, 7009.267
333.6820, 7737.375
334.8860, 8461.513
336.0900, 9560.297
337.2940, 10640.18
338.4980, 11916.17
339.7010, 13321.27
340.9050, 14983.47
342.1080, 16330.76
343.3110, 17784.15
344.5140, 18967.65
345.7170, 19764.25
346.9200, 20651.94
348.1220, 20538.73
349.3240, 20999.62
350.5270, 21199.60
351.7290, 21842.68
352.9310, 22627.85
354.1320, 23937.11
355.3340, 25685.46
356.5350, 27525.91
357.7370, 29907.44
358.9380, 32226.04
360.1390, 33940.73
361.3400, 35410.52
362.5400, 36215.37
363.7410, 36168.31
364.9410, 35573.33
366.1410, 33700.43
367.3410, 31357.62
368.5410, 28868.87
369.7410, 25869.21
370.9400, 23055.62
372.1400, 20555.11
373.3390, 17699.69
374.5380, 15669.33
375.7370, 13331.05
376.9360, 11714.85
378.1350, 10147.72
379.3330, 8777.662
380.5310, 7781.678
381.7300, 6689.770
382.9280, 5738.934
384.1260, 5230.168
385.3230, 4345.473
386.5210, 3588.850
387.7180, 3426.295
388.9160, 2634.811
390.1130, 2317.393
391.3100, 2051.098
392.5060, 1748.916
393.7030, 1499.852
394.9000, 1347.900
396.0960, 1125.986
397.2920, 790.3398
398.4880, 779.7207
399.6840, 701.2051
400.8800, 499.7949
402.0750, 144.4902
403.2710, 326.3281
404.4660, 153.3047
405.6610, 87.44727
406.8560, 91.71680
408.0510, 21.12305
409.2450, 8.246094
410.4400, 192.4668
411.6340, 131.5508
412.8280, 62.50586
414.0220, 91.70508
415.2160, 49.86328
416.4100, 82.75391
417.6030, 122.4004
418.7970, 92.59961
419.9900, 27.17188
421.1830, 31.23047
422.3760, 39.93945
423.5690, 3.306641
424.7610, 8.144531
425.9540, 1.730469
427.1460, 78.81836
428.3380, 18.18945
429.5300, 78.27148
430.7220, 75.67773
431.9140, 173.0059
433.1050, 63.68945
434.2970, 73.53516
435.4880, 32.28516
436.6790, 174.1738
437.8700, 227.1309
439.0610, 290.1543
440.2510, 342.2441
441.4420, 343.3984
442.6320, 624.6172
443.8220, 740.9004
445.0120, 659.2480
446.2020, 996.6562
447.3910, 816.1250
448.5810, 775.6562
449.7700, 791.2441
450.9600, 564.8945
452.1490, 436.6035
453.3370, 351.3672
454.5260, 14.80859
455.7150, 18.05078
456.9030, 301.0430
458.0910, 96.21484
459.2800, 166.3867
460.4670, 262.5840
461.6550, 199.8477
462.8430, 288.9453
464.0300, 223.5469
465.2180, 342.9941
466.4050, 273.5469
467.5920, 244.1797
468.7790, 25.88281
469.9650, 3.435547
471.1520, 20.78125
472.3380, 112.1621
473.5250, 202.5918
474.7110, 413.0664
475.8970, 543.5859
477.0820, 669.5215
478.2680, 713.7598
479.4540, 950.4141
480.6390, 1112.111
481.8240, 1318.850
483.0090, 1495.291
484.1940, 1585.453
485.3780, 1881.316
486.5630, 2115.221
487.7470, 2412.164
488.9320, 2433.789
490.1160, 2381.170
491.3000, 2410.230
492.4830, 2436.326
493.6670, 2387.463
494.8500, 2387.633
496.0340, 2381.701
497.2170, 2390.084
498.4000, 2573.361
499.5820, 2645.674
500.7650, 3190.021
501.9480, 3803.400
503.1300, 4856.814
504.3120, 5828.262
505.4940, 7182.740
506.6760, 8853.250
507.8580, 10937.79
509.0390, 13080.36
510.2210, 14953.96
511.4020, 16874.60
512.5830, 18107.26
513.7640, 18540.95
514.9450, 17873.67
516.1250, 16561.42
517.3060, 14990.20
518.4860, 13368.00
519.6660, 11466.83
520.8460, 9742.688
522.0260, 8271.570
523.2060, 7139.480
524.3850, 6145.416
525.5650, 5458.375
526.7440, 4618.359
527.9230, 3913.369
529.1020, 3769.400
530.2810, 3066.455
531.4590, 2813.533
532.6380, 2692.635
533.8160, 2215.758
534.9940, 1918.902
536.1720, 2013.066
537.3500, 1722.252
538.5270, 1552.457
539.7050, 1633.682
540.8820, 1381.984
542.0590, 1548.707
543.2360, 1462.807
544.4130, 1826.811
545.5900, 1471.250
546.7660, 1616.219
547.9430, 1552.678
549.1190, 1716.354
550.2950, 1506.670
551.4710, 1271.619
552.6470, 1184.244
553.8220, 1266.635
554.9980, 1027.594
556.1730, 922.3516
557.3480, 590.8633
558.5230, 441.0117
559.6980, 471.8242
560.8730, 352.6367
562.0470, 399.5430
563.2220, 301.6973
564.3960, 329.5957
565.5700, 251.8242
566.7440, 406.3438
567.9170, 305.5020
569.0910, 447.5781
570.2640, 766.0703
571.4380, 708.7031
572.6110, 763.2148
573.7840, 932.2930
574.9570, 1011.363
576.1290, 940.5586
577.3020, 1130.668
578.4740, 1036.756
579.6460, 1211.820
580.8180, 1057.859
581.9900, 1161.875
583.1620, 1055.867
584.3330, 1148.834
585.5040, 1080.777
586.6760, 959.6934
587.8470, 1030.586
589.0180, 1116.453
590.1880, 1006.293
591.3590, 1067.105
592.5290, 972.8926
593.7000, 958.6523
594.8700, 999.3828
596.0400, 980.4238
597.2090, 796.6191
598.3790, 881.0098
599.5490, 834.2383
600.7180, 640.1387
601.8870, 808.1016
603.0560, 808.0996
604.2250, 771.5156
605.3940, 831.1074
606.5620, 752.6016
607.7300, 738.4824
608.8990, 830.7461
610.0670, 799.6367
611.2350, 716.2305
612.4020, 818.6875
613.5700, 785.0176
614.7370, 720.3281
615.9050, 748.6113
617.0720, 893.8730
618.2390, 1131.109
619.4060, 1195.326
620.5720, 1380.518
621.7390, 1583.688
622.9050, 1612.832
624.0710, 1796.955
625.2370, 1871.055
626.4030, 2060.129
627.5690, 2141.182
628.7340, 2309.207
629.9000, 2380.213
631.0650, 2720.195
632.2300, 2662.150
633.3950, 2744.086
634.5600, 2870.996
635.7240, 2703.885
636.8890, 3004.750
638.0530, 3033.594
639.2170, 2878.412
640.3810, 3076.213
641.5450, 3070.988
642.7080, 2941.744
643.8720, 3006.475
645.0350, 2994.188
646.1980, 3182.879
647.3610, 3160.547
648.5240, 3204.193
649.6870, 2980.820
650.8490, 3218.426
652.0120, 3088.008
653.1740, 3101.568
654.3360, 3115.109
655.4980, 3195.629
656.6600, 3095.127
657.8210, 2983.604
658.9830, 2783.059
660.1440, 2660.021
661.3050, 2819.904
662.4660, 2432.297
663.6270, 2281.668
664.7870, 2371.020
665.9480, 2062.348
667.1080, 1905.656
668.2680, 1679.947
669.4280, 1597.215
670.5880, 1172.461
671.7480, 1063.686
672.9070, 1000.893
674.0670, 829.0762
675.2260, 755.2402
676.3850, 596.3809
677.5440, 487.4941
678.7030, 431.6055
679.8610, 292.6836
681.0200, 244.7383
682.1780, 215.7676
683.3360, 29.23438
684.4940, 37.34375
685.6520, 126.5605
686.8090, 12.06055
687.9670, 43.39844
689.1240, 372.9707
690.2810, 116.8262
691.4380, 279.8320
692.5950, 190.0391
693.7520, 240.4141
694.9080, 400.9922
696.0650, 309.8633
697.2210, 441.9766
698.3770, 297.4062
699.5330, 440.0547
700.6880, 282.0137
701.8440, 290.1992
702.9990, 208.7363
704.1550, 173.0215
705.3100, 294.3730
706.4650, 161.3691
707.6190, 208.1934
708.7740, 261.5234
709.9290, 65.93555
711.0830, 45.62695
712.2370, 30.73242
713.3910, 79.07422
714.5450, 126.3828
715.6980, 339.6758
716.8520, 504.9531
718.0050, 529.2168
719.1580, 685.4707
720.3110, 588.7070
721.4640, 1015.932
722.6170, 1351.143
723.7700, 1438.340
724.9220, 1973.527
726.0740, 1901.701
727.2260, 2313.861
728.3780, 2444.012
729.5300, 2914.148
730.6810, 3023.279
731.8330, 3242.398
732.9840, 3819.508
734.1350, 3907.605
735.2860, 4173.707
736.4370, 4329.803
737.5880, 4498.959
738.7380, 4558.133
739.8880, 4616.336
741.0390, 4660.594
742.1890, 4660.764
743.3380, 4529.254
744.4880, 4579.658
745.6380, 4681.141
746.7870, 4530.684
747.9360, 4354.273
749.0850, 4470.879
750.2340, 4468.488
751.3830, 4467.098
752.5310, 4640.705
753.6800, 4426.311
754.8280, 4423.912
755.9760, 4243.572
757.1240, 4222.262
758.2720, 4055.973
759.4190, 3934.697
760.5670, 3746.424
761.7140, 3764.150
762.8610, 3571.883
764.0080, 3488.621
765.1550, 3448.387
766.3020, 3328.193
767.4480, 3329.090
768.5950, 3226.016
769.7410, 3193.941
770.8870, 3218.955
772.0330, 3144.027
773.1780, 3283.168
774.3240, 3353.404
775.4690, 3252.689
776.6140, 3438.074
777.7590, 3489.525
778.9040, 3701.027
780.0490, 3753.018
781.1940, 3880.156
782.3380, 3845.785
783.4820, 3864.467
784.6260, 3820.172
785.7700, 4035.887
786.9140, 4283.648
788.0580, 4195.445
789.2010, 4457.305
790.3450, 4562.172
791.4880, 4606.059
792.6310, 4694.961
793.7730, 5007.932
794.9160, 5337.918
796.0590, 5378.914
797.2010, 5538.922
798.3430, 5871.941
799.4850, 5997.006
800.6270, 6226.121
801.7690, 6812.244
802.9100, 7049.379
804.0520, 7515.531
805.1930, 7931.695
806.3340, 8001.871
807.4750, 8421.057
808.6160, 8686.254
809.7560, 9255.457
810.8970, 9361.680
812.0370, 9277.906
813.1770, 9241.145
814.3170, 9117.396
815.4570, 8861.658
816.5960, 8805.930
817.7360, 8539.148
818.8750, 8171.975
820.0140, 8112.457
821.1530, 7781.062
822.2920, 7627.258
823.4310, 7454.953
824.5690, 7380.189
825.7070, 7250.232
826.8460, 7091.662
827.9840, 7230.242
829.1220, 7323.680
830.2590, 7456.842
831.3970, 7460.939
832.5340, 7630.059
833.6710, 7530.012
834.8080, 7903.793
835.9450, 7775.777
837.0820, 7863.945
838.2190, 7977.182
839.3550, 7929.059
840.4910, 7885.213
841.6270, 7896.779
842.7630, 7833.934
843.8990, 7785.613
845.0350, 7718.555
846.1700, 7820.344
847.3060, 7784.896
848.4410, 8012.635
849.5760, 8061.639
850.7100, 8070.824
851.8450, 8349.865
852.9800, 8228.059
854.1140, 8575.289
855.2480, 8906.570
856.3820, 8842.893
857.5160, 9088.260
858.6500, 9215.676
859.7830, 9560.137
860.9170, 9852.645
862.0500, 10142.20
863.1830, 10523.79
864.3160, 10846.43
865.4480, 11059.12
866.5810, 11576.86
867.7130, 11663.64
868.8460, 12103.47
869.9780, 12325.35
871.1100, 12497.28
872.2410, 12533.25
873.3730, 12510.27
874.5050, 12233.34
875.6360, 11597.45
876.7670, 11168.61
877.8980, 10452.82
879.0290, 9807.078
880.1590, 9148.383
881.2900, 8419.734
882.4200, 7756.133
883.5500, 7066.574
884.6800, 6300.059
885.8100, 5864.588
886.9400, 5201.160
888.0690, 4828.777
889.1990, 4349.443
890.3280, 4010.152
891.4570, 3707.961
892.5860, 3340.684
893.7140, 3239.555
894.8430, 2835.629
895.9710, 2753.852
897.1000, 2603.213
898.2280, 2554.557
899.3560, 2390.527
900.4830, 2407.834
901.6110, 2419.984
902.7380, 2339.725
903.8660, 2480.580
904.9930, 2201.986
906.1200, 2441.242
907.2460, 2124.539
908.3730, 2585.902
909.5000, 2425.979
910.6260, 2477.578
911.7520, 2433.918
912.8780, 2485.242
914.0040, 2458.941
915.1290, 2581.926
916.2550, 2626.732
917.3800, 2666.969
918.5050, 2769.893
919.6300, 2778.301
920.7550, 2900.176
921.8800, 2866.869
923.0040, 2898.727
924.1290, 3034.322
925.2530, 2878.375
926.3770, 2887.463
927.5010, 2970.168
928.6250, 2951.605
929.7480, 2658.203
930.8720, 2860.359
931.9950, 2477.125
933.1180, 2741.023
934.2410, 2609.848
935.3640, 2405.244
936.4860, 2202.523
937.6090, 2327.969
938.7310, 2159.803
939.8530, 2223.229
940.9750, 2205.188
942.0970, 2308.311
943.2180, 2104.453
944.3400, 2229.908
945.4610, 2128.650
946.5820, 2121.844
947.7030, 2272.314
948.8240, 2131.543
949.9450, 2305.789
951.0650, 2504.051
952.1860, 2312.332
953.3060, 2465.627
954.4260, 2585.943
955.5460, 2535.279
956.6650, 2619.676
957.7850, 2621.133
958.9040, 2549.912
960.0230, 2680.502
961.1420, 2698.152
962.2610, 2740.953
963.3800, 2794.879
964.4990, 2748.828
965.6170, 2813.348
966.7350, 2808.775
967.8530, 2807.902
968.9710, 2815.895
970.0890, 2795.932
971.2070, 2776.711
972.3240, 2734.818
973.4410, 2755.967
974.5580, 2746.139
975.6750, 2789.408
976.7920, 2861.463
977.9090, 2745.928
979.0250, 2591.471
980.1410, 2843.105
981.2580, 2702.760
982.3740, 2824.752
983.4890, 2706.592
984.6050, 2830.457
985.7200, 2815.441
986.8360, 2888.238
987.9510, 2813.143
989.0660, 2768.051
990.1810, 2724.965
991.2950, 2298.883
992.4100, 2385.805
993.5240, 1967.740
994.6390, 1857.695
995.7530, 1744.656
996.8660, 1552.641
997.9800, 1230.629
999.0940, 1067.914
1000.207, 1206.102
1001.320, 1052.404
1002.433, 1151.867
1003.546, 1049.049
1004.659, 1052.527
1005.772, 1361.770
1006.884, 1470.127
1007.996, 1710.172
1009.108, 1729.754
1010.220, 1713.189
1011.332, 1649.629
1012.444, 1459.275
1013.555, 1274.086
1014.666, 965.6836
1015.777, 989.7852
1016.888, 713.8555
1017.999, 475.0059
1019.110, 415.0352
1020.220, 211.0566
1021.331, 225.0918
1022.441, 25.20508
1023.551, 81.66602
1024.661, 246.7070
1025.770, 122.5215
1026.880, 101.7344
1027.989, 52.56250
1029.098, 4.376953
1030.207, 0.3085940
1031.316, 5.876953
1032.425, 13.79102
1033.533, 105.1309
1034.642, 131.3926
1035.750, 328.9238
1036.858, 88.68555
1037.966, 64.49219
1039.073, 296.3262
1040.181, 198.4199
1041.288, 228.5332
1042.396, 316.8184
1043.503, 163.1953
1044.610, 315.8066
1045.716, 217.4883
1046.823, 141.4219
1047.929, 175.5039
1049.036, 95.27539
1050.142, 174.9316
1051.248, 146.3145
1052.353, 29.82227
1053.459, 55.60547
1054.564, 109.9961
1055.670, 78.70703
1056.775, 152.1445
1057.880, 118.2363
1058.985, 3.271484
1060.089, 11.25391
1061.194, 173.7793
1062.298, 17.00391
1063.402, 137.7461
1064.506, 52.46094
1065.610, 46.14062
1066.713, 75.22070
1067.817, 98.54492
1068.920, 149.8828
1070.023, 118.7480
1071.126, 29.28125
1072.229, 138.8867
1073.332, 70.81641
1074.435, 236.0605
1075.537, 341.6055
1076.639, 162.7891
1077.741, 115.9414
1078.843, 297.0527
1079.945, 180.1328
1081.046, 283.1758
1082.148, 564.1875
1083.249, 438.4219
1084.350, 402.6738
1085.451, 361.9746
1086.551, 476.8496
1087.652, 412.6875
1088.752, 341.5781
1089.853, 380.2305
1090.953, 216.9414
1092.053, 303.6367
1093.152, 465.6680
1094.252, 309.5293
1095.351, 404.4531
1096.451, 319.3477
1097.550, 189.3477
1098.649, 274.3867
1099.748, 200.0273
1100.846, 304.0586
1101.945, 211.0117
1103.043, 317.0449
1104.141, 369.5703
1105.239, 247.2480
1106.337, 391.6836
1107.434, 466.8965
1108.532, 169.9355
1109.629, 492.9180
1110.726, 387.8516
1111.823, 406.7363
1112.920, 163.5195
1114.017, 288.2930
1115.113, 562.9824
1116.210, 417.8164
1117.306, 604.8672
1118.402, 456.9160
1119.498, 760.0371
1120.593, 588.8066
1121.689, 701.6836
1122.784, 869.5117
1123.879, 928.2812
1124.974, 603.8105
1126.069, 783.0840
1127.164, 650.0605
1128.259, 470.8242
1129.353, 533.6016
1130.447, 315.2832
1131.541, 339.3418
1132.635, 313.6367
1133.729, 277.9082
1134.822, 347.2383
1135.916, 276.9297
1137.009, 335.3594
1138.102, 309.2285
1139.195, 399.8789
1140.288, 316.0098
1141.380, 315.3574
1142.473, 258.6387
1143.565, 259.8145
1144.657, 240.6621
1145.749, 276.3926
1146.841, 416.0918
1147.932, 423.0508
1149.024, 407.1602
1150.115, 522.4805
1151.206, 499.2559
1152.297, 444.8848
1153.388, 235.5352
1154.479, 337.5723
1155.569, 297.2559
1156.659, 358.0410
1157.750, 600.4160
1158.839, 321.2520
1159.929, 202.3164
1161.019, 363.7090
1162.108, 177.4414
1163.198, 580.3984
1164.287, 419.4746
1165.376, 377.7012
1166.465, 413.6016
1167.553, 644.5176
1168.642, 419.0605
1169.730, 620.2852
1170.818, 205.1797
1171.906, 374.7793
1172.994, 381.4668
1174.082, 325.2422
1175.170, 460.8418
1176.257, 292.3086
1177.344, 302.7695
1178.431, 409.3203
1179.518, 573.0742
1180.605, 283.9824
1181.691, 329.4688
1182.778, 507.5645
1183.864, 408.8164
1184.950, 447.2031
1186.036, 298.1094
1187.122, 171.0430
1188.207, 173.1758
1189.292, 399.7207
1190.378, 376.2070
1191.463, 239.0508
1192.548, 513.1367
1193.632, 460.8340
1194.717, 357.5859
1195.801, 444.4492
1196.886, 329.9727
1197.970, 197.4883
1199.054, 229.3301
1200.137, 110.0586
1201.221, 182.4219
1202.305, 152.3027
1203.388, 71.14258
1204.471, 271.7285
1205.554, 141.8828
1206.637, 255.2559
1207.719, 228.2812
1208.802, 235.6641
1209.884, 282.5703
1210.966, 225.1699
1212.048, 226.1055
1213.130, 161.8789
1214.212, 148.6055
1215.293, 129.2852
1216.374, 288.9180
1217.456, 239.5059
1218.536, 202.0566
1219.617, 42.55664
1220.698, 31.01367
1221.778, 245.1758
1222.859, 131.9727
1223.939, 163.2793
1225.019, 138.5410
1226.099, 136.8398
1227.178, 100.5371
1228.258, 80.70898
1229.337, 21.70508
1230.417, 63.32422
1231.496, 69.29688
1232.574, 53.83984
1233.653, 148.0527
1234.732, 99.88281
1235.810, 145.4648
1236.888, 186.9375
1237.966, 221.8457
1239.044, 240.7949
1240.122, 341.4102
1241.199, 318.1367
1242.277, 91.48242
1243.354, 221.0547
1244.431, 24.23438
1245.508, 17.72070
1246.585, 107.0039
1247.661, 94.24219
1248.738, 63.43750
1249.814, 133.5898
1250.890, 94.69727
1251.966, 91.76367
1253.042, 92.78711
1254.117, 5.234375
1255.193, 34.31055
1256.268, 28.53320
1257.343, 60.66406
1258.418, 36.92773
1259.493, 14.28320
1260.567, 162.0371
1261.642, 89.41406
1262.716, 80.63477
1263.790, 50.65820
1264.864, 187.9180
1265.938, 21.84180
1267.011, 113.9570
1268.085, 105.0820
1269.158, 33.11523
1270.231, 192.9141
1271.304, 270.6660
1272.377, 142.3145
1273.450, 79.74414
1274.522, 36.03711
1275.594, 164.6582
1276.666, 212.1172
1277.738, 15.11523
1278.810, 66.52344
1279.882, 336.2324
1280.953, 76.08789
1282.025, 199.5078
1283.096, 65.97852
1284.167, 134.0547
1285.238, 138.9277
1286.308, 132.1328
1287.379, 39.66016
1288.449, 213.7324
1289.519, 48.97852
1290.589, 227.1797
1291.659, 40.00000
1292.729, 232.3926
1293.798, 40.70703
1294.868, 148.8613
1295.937, 6.203125
1297.006, 46.35938
1298.075, 82.95312
1299.143, 99.37500
1300.212, 177.8516
1301.280, 28.75586
1302.348, 299.6855
1303.416, 61.08008
1304.484, 193.6113
1305.552, 204.0742
1306.620, 29.67578
1307.687, 234.3340
1308.754, 239.0293
1309.821, 137.6582
1310.888, 203.3828
1311.955, 152.1367
1313.021, 149.8867
1314.088, 279.6230
1315.154, 88.38281
1316.220, 124.3008
1317.286, 224.5781
1318.352, 326.3613
1319.417, 285.1328
1320.483, 192.9355
1321.548, 21.26953
1322.613, 45.49219
1323.678, 106.2324
1324.743, 212.9512
1325.807, 5.353516
1326.872, 206.2148
1327.936, 19.93945
1329.000, 29.16211
1330.064, 44.66797
1331.128, 213.0352
1332.191, 70.02539
1333.255, 126.6465
1334.318, 15.08594
1335.381, 64.49219
1336.444, 142.0488
1337.507, 234.5859
1338.569, 227.1953
1339.632, 111.6035
1340.694, 219.0840
1341.756, 194.2871
1342.818, 228.4160
1343.880, 222.4766
1344.941, 222.0195
1346.003, 135.2363
1347.064, 244.5195
1348.125, 132.9844
1349.186, 182.3359
1350.247, 27.65234
1351.308, 239.5742
1352.368, 211.6113
1353.428, 111.5332
1354.489, 190.4277
1355.549, 324.1602
1356.608, 341.7988
1357.668, 236.7949
1358.727, 215.3027
1359.787, 270.8535
1360.846, 46.26562
1361.905, 278.1230
1362.964, 368.7715
1364.022, 205.6016
1365.081, 205.5957
1366.139, 291.0957
1367.197, 205.8066
1368.255, 418.8984
1369.313, 274.9805
1370.371, 188.1016
1371.428, 251.1699
1372.486, 77.25781
1373.543, 421.1406
1374.600, 262.7441
1375.657, 321.2930
1376.713, 315.7090
1377.770, 169.4121
1378.826, 122.9531
1379.882, 338.4766
1380.938, 391.0020
1381.994, 401.7070
1383.050, 204.4688
1384.106, 389.4648
1385.161, 269.6113
1386.216, 186.6777
1387.271, 547.7773
1388.326, 120.4395
1389.381, 209.7988
1390.435, 248.1211
1391.490, 317.3203
1392.544, 403.0957
1393.598, 429.0645
1394.652, 290.5371
1395.705, 321.1582
1396.759, 138.2461
1397.812, 253.0488
1398.866, 36.85742
1399.919, 195.4648
1400.972, 270.8184
1402.024, 207.9883
1403.077, 134.1230
1404.129, 221.9375
1405.181, 213.5391
1406.233, 260.8750
1407.285, 165.6953
1408.337, 324.6016
1409.389, 259.4258
1410.440, 351.7969
1411.491, 336.4668
1412.542, 195.1660
1413.593, 271.8477
1414.644, 281.3477
1415.695, 237.0977
1416.745, 243.5254
1417.795, 190.4688
1418.845, 184.1367
1419.895, 113.0508
1420.945, 114.4727
1421.995, 140.3633
1423.044, 86.63867
1424.093, 176.1738
1425.142, 339.4648
1426.191, 157.2344
1427.240, 172.2539
1428.289, 187.1133
1429.337, 78.16992
1430.385, 404.8828
1431.433, 218.9805
1432.481, 309.1074
1433.529, 337.7715
1434.577, 231.9512
1435.624, 183.1641
1436.672, 359.6328
1437.719, 392.2188
1438.766, 334.6641
1439.812, 295.0410
1440.859, 472.6523
1441.905, 263.6016
1442.952, 57.37500
1443.998, 87.52344
1445.044, 173.9707
1446.090, 28.46680
1447.135, 559.3164
1448.181, 262.9492
1449.226, 607.6133
1450.271, 413.4785
1451.316, 450.2266
1452.361, 902.5645
1453.405, 525.9277
1454.450, 556.9102
1455.494, 724.6211
1456.538, 578.1855
1457.582, 652.8652
1458.626, 816.5312
1459.670, 617.1758
1460.713, 820.8066
1461.757, 924.9434
1462.800, 665.5664
1463.843, 1052.086
1464.886, 854.6934
1465.928, 672.3086
1466.971, 818.5195
1468.013, 884.1270
1469.055, 852.7266
1470.097, 996.3125
1471.139, 957.8867
1472.181, 842.5332
1473.222, 927.9941
1474.263, 1069.652
1475.305, 1235.312
1476.346, 1107.967
1477.386, 1136.635
1478.427, 954.3652
1479.468, 1016.166
1480.508, 1121.006
1481.548, 916.8496
1482.588, 1006.703
1483.628, 1113.568
1484.668, 1113.541
1485.707, 1119.230
1486.747, 1053.232
1487.786, 1021.342
1488.825, 1021.543
1489.864, 940.7754
1490.902, 898.0957
1491.941, 939.4297
1492.979, 938.7793
1494.017, 1063.145
1495.055, 1078.725
1496.093, 1061.287
1497.131, 1096.424
1498.168, 1023.926
1499.206, 991.6074
1500.243, 881.2188
1501.280, 879.9141
1502.317, 748.6270
1503.354, 718.3574
1504.390, 821.0645
1505.426, 600.7363
1506.463, 769.4043
1507.499, 884.3867
1508.535, 713.5469
1509.570, 646.5703
1510.606, 394.8086
1511.641, 525.0898
1512.676, 584.4043
1513.711, 608.7754
1514.746, 599.1680
1515.781, 564.5840
1516.816, 619.0293
1517.850, 607.5098
1518.884, 585.0879
1519.918, 607.5684
1520.952, 518.1523
1521.986, 519.7715
1523.019, 460.4316
1524.053, 537.1309
1525.086, 411.8691
1526.119, 288.6445
1527.152, 380.4551
1528.185, 194.3047
1529.217, 364.1953
1530.250, 375.1172
1531.282, 469.0645
1532.314, 477.9531
1533.346, 329.0273
1534.377, 409.0391
1535.409, 333.0684
1536.440, 204.1074
1537.472, 162.1504
1538.503, 4.203125
1539.534, 146.7930
1540.564, 257.0156
1541.595, 106.3633
1542.625, 94.84180
1543.656, 275.4609
1544.686, 179.2305
1545.716, 191.1641
1546.745, 210.2715
1547.775, 118.5684
1548.804, 232.0703
1549.834, 243.8105
1550.863, 98.80273
1551.892, 234.0879
1552.920, 247.7031
1553.949, 291.7070
1554.977, 451.6719
1556.006, 413.4922
1557.034, 336.7500
1558.062, 214.4980
1559.089, 292.8066
1560.117, 43.24805
1561.144, 83.41992
1562.172, 134.9316
1563.199, 272.5039
1564.226, 42.33984
1565.252, 144.6016
1566.279, 184.0117
1567.305, 364.8242
1568.332, 84.94922
1569.358, 240.5117
1570.384, 0.0000000E+00
##END=



