##NAMES=Axinite-(Fe)
##RRUFFID=R060194
##IDEAL CHEMISTRY=Ca_4_Fe^2+^_2_Al_4_[B_2_Si_8_O_30_](OH)_2_
##LOCALITY=near Dalbandi, Baluchistan Province, Pakistan
##OWNER=RRUFF
##SOURCE=Herbert Obodda
##DESCRIPTION=Brown transparent wedge-shaped single crystal
##STATUS=The identification of this mineral has been confirmed by X-ray diffraction and chemical analysis
##URL=rruff.info/R060194
##MEASURED CHEMISTRY=Ca_2.00_(Fe^2+^_0.66_Mg_0.30_Mn_0.04_)Al_2.00_BSi_4.00_O_15_(OH)
##PIN_ID=L01255
##ORIENTATION=Laser parallel to (-1 0 -1). Fiducial mark perpendicular to laser is parallel to -b [0 -1 0]
53.91000, 0.0000000E+00
55.14900, 83.92438
56.38700, 185.2932
57.62600, 272.4265
58.86400, 347.3716
60.10300, 519.6490
61.34100, 536.5906
62.57900, 382.0453
63.81700, 229.3554
65.05400, 64.13062
66.29200, 66.01562
67.52900, 137.5255
68.76700, 12.83997
70.00400, 64.86731
71.24100, 20.01990
72.47700, 37.44189
73.71400, 39.13623
74.95100, 126.2642
76.18700, 140.5239
77.42300, 70.65259
78.65900, 112.4116
79.89500, 289.5869
81.13100, 481.9888
82.36700, 828.4468
83.60200, 1336.812
84.83700, 1647.912
86.07200, 2139.736
87.30800, 2568.066
88.54200, 3133.840
89.77700, 3787.968
91.01200, 4674.366
92.24600, 5850.900
93.48000, 6854.400
94.71400, 7302.713
95.94800, 8174.721
97.18200, 8181.394
98.41600, 8350.699
99.64900, 8761.569
100.8830, 9460.937
102.1160, 9939.740
103.3490, 11139.95
104.5820, 12991.51
105.8150, 16717.39
107.0470, 21223.57
108.2800, 26358.01
109.5120, 27565.70
110.7440, 22677.60
111.9760, 19135.69
113.2080, 16887.95
114.4400, 15222.37
115.6710, 14466.91
116.9030, 13283.57
118.1340, 12214.34
119.3650, 11548.18
120.5960, 11110.09
121.8270, 10722.05
123.0580, 10216.05
124.2880, 9784.969
125.5190, 9493.139
126.7490, 8744.193
127.9790, 8399.065
129.2090, 7644.208
130.4390, 7304.592
131.6680, 6941.169
132.8980, 6742.927
134.1270, 6699.807
135.3560, 6774.781
136.5850, 7073.122
137.8140, 7544.308
139.0430, 8260.642
140.2710, 9142.015
141.5000, 9888.076
142.7280, 9514.588
143.9560, 9475.549
145.1840, 9410.973
146.4120, 9430.883
147.6390, 9533.295
148.8670, 10107.23
150.0940, 10851.71
151.3210, 11826.75
152.5490, 12393.35
153.7750, 11723.54
155.0020, 10623.30
156.2290, 9961.657
157.4550, 9597.591
158.6810, 9026.111
159.9080, 8974.216
161.1340, 8836.899
162.3590, 8912.170
163.5850, 9714.010
164.8110, 10552.43
166.0360, 11951.43
167.2610, 13431.00
168.4860, 15578.13
169.7110, 17736.83
170.9360, 19454.10
172.1610, 19239.94
173.3850, 17517.33
174.6100, 15038.28
175.8340, 12939.78
177.0580, 10522.83
178.2820, 8722.431
179.5050, 6943.581
180.7290, 5515.270
181.9520, 4594.496
183.1760, 3733.260
184.3990, 3377.555
185.6220, 2937.381
186.8450, 2709.730
188.0670, 2521.621
189.2900, 2526.144
190.5120, 2763.226
191.7340, 3252.818
192.9560, 3473.922
194.1780, 3825.531
195.4000, 4435.639
196.6220, 4340.240
197.8430, 4425.339
199.0640, 4532.924
200.2860, 5082.994
201.5070, 5593.583
202.7270, 6343.777
203.9480, 6995.573
205.1690, 7708.819
206.3890, 8644.903
207.6090, 9626.147
208.8290, 10690.09
210.0490, 11863.30
211.2690, 12672.81
212.4890, 13448.66
213.7080, 13516.17
214.9280, 13260.29
216.1470, 12503.25
217.3660, 12013.86
218.5850, 11271.87
219.8030, 10277.50
221.0220, 9257.702
222.2400, 7994.061
223.4590, 6670.104
224.6770, 5413.549
225.8950, 4391.846
227.1120, 3566.170
228.3300, 2992.908
229.5480, 2448.748
230.7650, 2221.152
231.9820, 2018.107
233.1990, 2047.604
234.4160, 1914.656
235.6330, 2224.320
236.8490, 2364.619
238.0660, 2940.592
239.2820, 3593.233
240.4980, 4035.574
241.7140, 4356.417
242.9300, 4603.337
244.1460, 4698.720
245.3610, 4818.754
246.5770, 4743.438
247.7920, 5082.741
249.0070, 5325.637
250.2220, 5530.102
251.4370, 6153.109
252.6510, 6898.584
253.8660, 7403.479
255.0800, 8150.787
256.2940, 8591.495
257.5080, 8957.599
258.7220, 10073.09
259.9360, 10830.98
261.1490, 9624.252
262.3630, 8839.900
263.5760, 9590.923
264.7890, 10465.32
266.0020, 11655.07
267.2150, 13090.19
268.4270, 14547.66
269.6400, 16041.49
270.8520, 17611.67
272.0640, 18646.19
273.2760, 19518.04
274.4880, 19980.24
275.7000, 20198.77
276.9120, 19614.64
278.1230, 18556.85
279.3340, 17092.39
280.5450, 15115.27
281.7560, 13373.48
282.9670, 11936.03
284.1780, 10410.90
285.3880, 9358.110
286.5980, 8977.638
287.8090, 8790.487
289.0190, 8583.652
290.2290, 8530.137
291.4380, 9111.935
292.6480, 9496.046
293.8570, 10022.47
295.0670, 10679.21
296.2760, 11303.25
297.4850, 11264.59
298.6930, 11537.25
299.9020, 11222.20
301.1110, 11060.45
302.3190, 10477.00
303.5270, 9930.847
304.7350, 9577.984
305.9430, 9031.409
307.1510, 9014.125
308.3580, 8812.126
309.5660, 9206.411
310.7730, 9145.978
311.9800, 9723.824
313.1870, 10738.94
314.3940, 11867.34
315.6010, 13758.03
316.8070, 15634.00
318.0130, 17745.31
319.2200, 18837.91
320.4260, 18619.47
321.6310, 17821.50
322.8370, 15999.68
324.0430, 13673.86
325.2480, 11624.84
326.4540, 9769.084
327.6590, 8656.569
328.8640, 7779.304
330.0680, 7548.285
331.2730, 7293.508
332.4780, 7341.972
333.6820, 7512.943
334.8860, 7793.613
336.0900, 8455.786
337.2940, 9270.189
338.4980, 10391.82
339.7010, 11963.68
340.9050, 13912.77
342.1080, 16088.07
343.3110, 18101.61
344.5140, 19582.36
345.7170, 19173.32
346.9200, 17610.59
348.1220, 15685.16
349.3240, 13530.04
350.5270, 11123.23
351.7290, 9452.726
352.9310, 7633.904
354.1320, 6172.160
355.3340, 4924.700
356.5350, 3389.289
357.7370, 2340.787
358.9380, 1161.394
360.1390, 558.7285
361.3400, 173.7461
362.5400, 290.9463
363.7410, 747.4004
364.9410, 770.7324
366.1410, 1000.954
367.3410, 945.1406
368.5410, 829.2783
369.7410, 714.3350
370.9400, 427.2773
372.1400, 129.0332
373.3390, 132.4502
374.5380, 458.1895
375.7370, 363.1865
376.9360, 403.4404
378.1350, 549.4023
379.3330, 250.2803
380.5310, 641.1396
381.7300, 812.7910
382.9280, 1577.630
384.1260, 2257.624
385.3230, 3242.055
386.5210, 4965.090
387.7180, 5324.244
388.9160, 6217.901
390.1130, 6953.184
391.3100, 7292.706
392.5060, 7491.955
393.7030, 7104.510
394.9000, 6793.263
396.0960, 6084.643
397.2920, 5151.635
398.4880, 4394.920
399.6840, 3860.268
400.8800, 3135.793
402.0750, 2916.496
403.2710, 2701.375
404.4660, 2364.428
405.6610, 2240.653
406.8560, 2188.050
408.0510, 2091.615
409.2450, 2262.348
410.4400, 2689.246
411.6340, 3013.310
412.8280, 3738.536
414.0220, 4805.923
415.2160, 5778.469
416.4100, 7057.176
417.6030, 8377.037
418.7970, 9645.053
419.9900, 9887.221
421.1830, 10534.55
422.3760, 10818.01
423.5690, 11576.63
424.7610, 12724.40
425.9540, 13421.31
427.1460, 14784.37
428.3380, 15881.56
429.5300, 16650.90
430.7220, 16761.37
431.9140, 16323.99
433.1050, 15119.73
434.2970, 13334.61
435.4880, 11479.62
436.6790, 9892.758
437.8700, 8246.025
439.0610, 7218.419
440.2510, 6575.939
441.4420, 6467.582
442.6320, 6668.348
443.8220, 7380.230
445.0120, 7607.237
446.2020, 7465.355
447.3910, 6627.592
448.5810, 5359.942
449.7700, 4030.404
450.9600, 3075.977
452.1490, 2181.657
453.3370, 1613.446
454.5260, 1088.341
455.7150, 1018.340
456.9030, 706.7139
458.0910, 771.2197
459.2800, 550.8848
460.4670, 246.7744
461.6550, 271.7910
462.8430, 58.81934
464.0300, 41.50488
465.2180, 11.35547
466.4050, 116.3584
467.5920, 308.1475
468.7790, 426.0215
469.9650, 719.9785
471.1520, 934.0156
472.3380, 1168.136
473.5250, 1283.334
474.7110, 1183.608
475.8970, 1228.961
477.0820, 1465.388
478.2680, 1725.918
479.4540, 2199.531
480.6390, 2671.104
481.8240, 3416.816
483.0090, 4199.598
484.1940, 4964.444
485.3780, 5533.358
486.5630, 5556.334
487.7470, 4874.373
488.9320, 3696.474
490.1160, 2607.633
491.3000, 1742.852
492.4830, 1011.126
493.6670, 397.4551
494.8500, 170.8359
496.0340, 12.23633
497.2170, 114.4053
498.4000, 49.15234
499.5820, 135.0205
500.7650, 246.1885
501.9480, 282.3789
503.1300, 609.5996
504.3120, 600.8652
505.4940, 1040.992
506.6760, 1162.508
507.8580, 1193.191
509.0390, 1444.525
510.2210, 1175.914
511.4020, 1361.686
512.5830, 1140.367
513.7640, 929.7588
514.9450, 849.4453
516.1250, 507.7520
517.3060, 378.3115
518.4860, 328.1777
519.6660, 114.2100
520.8460, 182.9951
522.0260, 315.1924
523.2060, 506.5283
524.3850, 517.0840
525.5650, 680.9258
526.7440, 662.1260
527.9230, 697.6289
529.1020, 571.5146
530.2810, 571.7422
531.4590, 574.3467
532.6380, 502.3418
533.8160, 387.6924
534.9940, 317.3477
536.1720, 228.2764
537.3500, 49.56250
538.5270, 347.3008
539.7050, 421.0283
540.8820, 863.7520
542.0590, 1038.477
543.2360, 1580.199
544.4130, 1689.920
545.5900, 1855.640
546.7660, 2142.355
547.9430, 2313.090
549.1190, 2098.850
550.2950, 2120.629
551.4710, 1794.460
552.6470, 1887.335
553.8220, 1901.218
554.9980, 2152.135
556.1730, 2541.093
557.3480, 2803.054
558.5230, 3320.049
559.6980, 3866.033
560.8730, 4657.003
562.0470, 4927.956
563.2220, 4972.893
564.3960, 4584.808
565.5700, 4208.701
566.7440, 3672.571
567.9170, 3556.418
569.0910, 3314.240
570.2640, 3276.037
571.4380, 3395.807
572.6110, 3312.547
573.7840, 3812.259
574.9570, 3588.941
576.1290, 3534.593
577.3020, 3222.213
578.4740, 2977.800
579.6460, 2811.354
580.8180, 2500.874
581.9900, 2294.357
583.1620, 2285.806
584.3330, 2248.215
585.5040, 2384.588
586.6760, 2738.923
587.8470, 2812.216
589.0180, 2968.469
590.1880, 2922.682
591.3590, 2645.852
592.5290, 2361.977
593.7000, 1919.059
594.8700, 1340.097
596.0400, 960.0889
597.2090, 679.0342
598.3790, 523.9268
599.5490, 397.7480
600.7180, 185.4678
601.8870, 364.0225
603.0560, 244.4658
604.2250, 424.1221
605.3940, 485.4893
606.5620, 852.8867
607.7300, 1147.504
608.8990, 1384.508
610.0670, 1831.459
611.2350, 2258.355
612.4020, 2786.199
613.5700, 3121.986
614.7370, 3722.719
615.9050, 4295.395
617.0720, 4693.013
618.2390, 5149.575
619.4060, 5621.078
620.5720, 5773.521
621.7390, 5419.907
622.9050, 4863.233
624.0710, 4213.498
625.2370, 3755.701
626.4030, 2662.845
627.5690, 2005.925
628.7340, 1555.943
629.9000, 1335.898
631.0650, 1068.789
632.2300, 988.6162
633.3950, 1053.499
634.5600, 1118.076
635.7240, 1466.168
636.8890, 1725.771
638.0530, 2128.167
639.2170, 2272.757
640.3810, 2842.693
641.5450, 3319.789
642.7080, 3493.595
643.8720, 3739.140
645.0350, 3769.305
646.1980, 3754.508
647.3610, 3470.378
648.5240, 3068.269
649.6870, 2739.160
650.8490, 2285.157
652.0120, 1877.363
653.1740, 1597.832
654.3360, 1225.159
655.4980, 1043.042
656.6600, 911.9512
657.8210, 809.0537
658.9830, 928.0518
660.1440, 879.0068
661.3050, 1051.785
662.4660, 1240.924
663.6270, 1301.735
664.7870, 1512.309
665.9480, 1844.436
667.1080, 2204.957
668.2680, 2745.262
669.4280, 3259.205
670.5880, 3990.489
671.7480, 4791.936
672.9070, 5978.277
674.0670, 6764.021
675.2260, 7925.588
676.3850, 8726.083
677.5440, 9052.072
678.7030, 8890.571
679.8610, 8311.894
681.0200, 7094.277
682.1780, 6217.595
683.3360, 5027.874
684.4940, 4128.412
685.6520, 3455.935
686.8090, 2944.123
687.9670, 2611.786
689.1240, 2377.111
690.2810, 2431.566
691.4380, 2364.837
692.5950, 2567.543
693.7520, 2523.563
694.9080, 3041.838
696.0650, 3493.991
697.2210, 3829.005
698.3770, 4662.077
699.5330, 5555.135
700.6880, 6711.844
701.8440, 7964.365
702.9990, 10082.45
704.1550, 12116.47
705.3100, 14898.41
706.4650, 18314.28
707.6190, 22137.09
708.7740, 26443.81
709.9290, 31182.47
711.0830, 36177.06
712.2370, 40386.58
713.3910, 42875.02
714.5450, 43915.40
715.6980, 42768.70
716.8520, 39127.93
718.0050, 35033.11
719.1580, 29481.20
720.3110, 24122.22
721.4640, 19609.18
722.6170, 16207.06
723.7700, 13150.88
724.9220, 10586.62
726.0740, 8659.302
727.2260, 7027.909
728.3780, 5963.449
729.5300, 5076.922
730.6810, 4176.326
731.8330, 3818.663
732.9840, 3068.932
734.1350, 2811.133
735.2860, 2461.266
736.4370, 2108.061
737.5880, 1827.759
738.7380, 1560.332
739.8880, 1265.713
741.0390, 1257.997
742.1890, 1305.300
743.3380, 1109.970
744.4880, 1063.163
745.6380, 920.7910
746.7870, 908.3633
747.9360, 801.8750
749.0850, 688.3271
750.2340, 773.7188
751.3830, 776.0518
752.5310, 825.3242
753.6800, 929.5400
754.8280, 932.6963
755.9760, 1134.795
757.1240, 1234.836
758.2720, 1183.820
759.4190, 1553.748
760.5670, 1686.620
761.7140, 1958.436
762.8610, 2263.196
764.0080, 2414.902
765.1550, 2647.555
766.3020, 2765.151
767.4480, 2964.695
768.5950, 2709.188
769.7410, 2637.626
770.8870, 2378.014
772.0330, 2251.348
773.1780, 1929.633
774.3240, 1717.883
775.4690, 1362.129
776.6140, 1083.402
777.7590, 884.6904
778.9040, 632.9531
780.0490, 442.1787
781.1940, 261.3594
782.3380, 201.4805
783.4820, 126.5361
784.6260, 93.51465
785.7700, 192.5889
786.9140, 34.91797
788.0580, 293.3867
789.2010, 267.1309
790.3450, 226.1338
791.4880, 211.3730
792.6310, 287.8389
793.7730, 276.5684
794.9160, 247.6729
796.0590, 387.1973
797.2010, 378.0361
798.3430, 390.8096
799.4850, 237.8359
800.6270, 309.9580
801.7690, 87.16504
802.9100, 147.3330
804.0520, 332.4492
805.1930, 125.6123
806.3340, 54.69922
807.4750, 131.2969
808.6160, 377.4424
809.7560, 353.7549
810.8970, 691.2168
812.0370, 725.8018
813.1770, 921.4961
814.3170, 956.2773
815.4570, 873.0801
816.5960, 956.8613
817.7360, 745.6143
818.8750, 449.3398
820.0140, 282.0361
821.1530, 198.7061
822.2920, 181.3447
823.4310, 43.04688
824.5690, 70.51270
825.7070, 69.06250
826.8460, 186.6973
827.9840, 171.9033
829.1220, 36.38379
830.2590, 144.3535
831.3970, 184.4355
832.5340, 36.65039
833.6710, 172.9189
834.8080, 65.69141
835.9450, 52.27637
837.0820, 82.83398
838.2190, 103.3691
839.3550, 313.8838
840.4910, 445.3818
841.6270, 341.8633
842.7630, 502.3320
843.8990, 532.7852
845.0350, 644.2266
846.1700, 877.6543
847.3060, 1087.068
848.4410, 1273.473
849.5760, 1337.865
850.7100, 1520.246
851.8450, 1789.621
852.9800, 1628.986
854.1140, 1792.344
855.2480, 1976.693
856.3820, 1946.035
857.5160, 1950.373
858.6500, 2000.705
859.7830, 2122.031
860.9170, 2241.355
862.0500, 2259.676
863.1830, 2240.992
864.3160, 2284.311
865.4480, 2280.625
866.5810, 2117.939
867.7130, 2450.256
868.8460, 2551.570
869.9780, 2431.887
871.1100, 2446.207
872.2410, 2476.529
873.3730, 2435.857
874.5050, 2294.203
875.6360, 2404.580
876.7670, 2440.020
877.8980, 2573.496
879.0290, 2563.967
880.1590, 2554.426
881.2900, 2545.195
882.4200, 2451.812
883.5500, 2411.463
884.6800, 2346.125
885.8100, 2380.795
886.9400, 2322.488
888.0690, 2452.748
889.1990, 2392.961
890.3280, 2816.729
891.4570, 2881.533
892.5860, 3231.354
893.7140, 3515.203
894.8430, 3818.064
895.9710, 4340.949
897.1000, 4832.865
898.2280, 5258.811
899.3560, 5671.783
900.4830, 6050.785
901.6110, 6435.809
902.7380, 6769.879
903.8660, 7207.971
904.9930, 7441.105
906.1200, 7516.307
907.2460, 7253.535
908.3730, 7019.818
909.5000, 6533.135
910.6260, 5795.488
911.7520, 5160.881
912.8780, 4658.332
914.0040, 4261.816
915.1290, 3625.324
916.2550, 3437.717
917.3800, 2903.939
918.5050, 2749.541
919.6300, 2536.090
920.7550, 2211.041
921.8800, 2403.018
923.0040, 2494.100
924.1290, 2429.148
925.2530, 2548.074
926.3770, 2702.773
927.5010, 2818.629
928.6250, 3129.939
929.7480, 3727.205
930.8720, 3735.551
931.9950, 3784.398
933.1180, 4026.088
934.2410, 3874.250
935.3640, 3666.283
936.4860, 3692.102
937.6090, 3505.199
938.7310, 3596.803
939.8530, 3679.059
940.9750, 3750.574
942.0970, 3966.807
943.2180, 4456.391
944.3400, 4652.398
945.4610, 5195.463
946.5820, 5985.611
947.7030, 6681.812
948.8240, 7369.066
949.9450, 8397.385
951.0650, 9169.758
952.1860, 10406.18
953.3060, 11605.68
954.4260, 12771.21
955.5460, 14215.78
956.6650, 15768.53
957.7850, 17382.39
958.9040, 19435.07
960.0230, 21619.26
961.1420, 24096.78
962.2610, 26307.16
963.3800, 28497.71
964.4990, 29849.83
965.6170, 30312.62
966.7350, 29365.14
967.8530, 28162.78
968.9710, 26331.56
970.0890, 24305.28
971.2070, 22695.01
972.3240, 21885.07
973.4410, 21440.33
974.5580, 21409.01
975.6750, 22356.76
976.7920, 23189.58
977.9090, 24403.47
979.0250, 25230.43
980.1410, 25672.46
981.2580, 25461.55
982.3740, 24428.71
983.4890, 23040.94
984.6050, 21107.24
985.7200, 19334.61
986.8360, 17991.06
987.9510, 16650.60
989.0660, 15614.20
990.1810, 14544.87
991.2950, 14147.60
992.4100, 13354.41
993.5240, 13055.28
994.6390, 12707.23
995.7530, 12506.27
996.8660, 12307.36
997.9800, 12341.53
999.0940, 12194.77
1000.207, 12085.07
1001.320, 12159.45
1002.433, 12005.90
1003.546, 11629.41
1004.659, 11205.01
1005.772, 10578.68
1006.884, 9681.418
1007.996, 9185.234
1009.108, 8364.113
1010.220, 7381.068
1011.332, 6552.098
1012.444, 5830.199
1013.555, 5137.732
1014.666, 4632.645
1015.777, 4073.428
1016.888, 3660.988
1017.999, 3359.443
1019.110, 2995.264
1020.220, 2777.225
1021.331, 2585.688
1022.441, 2236.428
1023.551, 2231.029
1024.661, 2275.557
1025.770, 2048.971
1026.880, 1883.201
1027.989, 2001.275
1029.098, 1973.785
1030.207, 2104.707
1031.316, 1994.445
1032.425, 1929.541
1033.533, 2198.637
1034.642, 2095.105
1035.750, 2388.654
1036.858, 2598.381
1037.966, 2874.473
1039.073, 2996.227
1040.181, 3268.461
1041.288, 3519.203
1042.396, 3477.322
1043.503, 3906.518
1044.610, 3716.531
1045.716, 3955.562
1046.823, 3757.650
1047.929, 4015.902
1049.036, 4110.834
1050.142, 4199.738
1051.248, 4530.162
1052.353, 4553.707
1053.459, 4999.574
1054.564, 5258.740
1055.670, 5513.664
1056.775, 5861.820
1057.880, 6036.324
1058.985, 5955.611
1060.089, 6252.246
1061.194, 5900.523
1062.298, 5642.131
1063.402, 5454.484
1064.506, 5075.719
1065.610, 4613.547
1066.713, 4212.350
1067.817, 3917.881
1068.920, 3455.891
1070.023, 3389.967
1071.126, 3216.131
1072.229, 2982.273
1073.332, 3163.990
1074.435, 3340.471
1075.537, 3450.527
1076.639, 3755.100
1077.741, 4199.711
1078.843, 4763.891
1079.945, 5649.594
1081.046, 6365.344
1082.148, 7109.508
1083.249, 7566.344
1084.350, 8051.654
1085.451, 7951.984
1086.551, 7561.949
1087.652, 6827.957
1088.752, 5992.010
1089.853, 5044.604
1090.953, 4323.830
1092.053, 3510.223
1093.152, 3173.492
1094.252, 2609.830
1095.351, 2456.293
1096.451, 2156.824
1097.550, 1834.566
1098.649, 1738.408
1099.748, 1636.168
1100.846, 1864.688
1101.945, 1596.488
1103.043, 1651.424
1104.141, 1690.398
1105.239, 1546.537
1106.337, 1685.584
1107.434, 1538.811
1108.532, 1479.094
1109.629, 1421.846
1110.726, 1421.020
1111.823, 1405.221
1112.920, 1051.451
1114.017, 1141.713
1115.113, 1213.414
1116.210, 1315.732
1117.306, 1624.078
1118.402, 1780.102
1119.498, 1926.914
1120.593, 2098.500
1121.689, 2220.953
1122.784, 2530.650
1123.879, 2484.152
1124.974, 2055.926
1126.069, 1693.309
1127.164, 1253.020
1128.259, 927.6328
1129.353, 742.2793
1130.447, 401.1953
1131.541, 275.2715
1132.635, 161.1582
1133.729, 79.09375
1134.822, 36.85547
1135.916, 78.84180
1137.009, 11.16016
1138.102, 24.92578
1139.195, 116.2305
1140.288, 122.1816
1141.380, 77.22070
1142.473, 100.6094
1143.565, 82.71680
1144.657, 24.66211
1145.749, 75.78516
1146.841, 68.21484
1147.932, 164.3418
1149.024, 16.49023
1150.115, 17.10742
1151.206, 59.90820
1152.297, 169.0605
1153.388, 49.74023
1154.479, 96.45117
1155.569, 138.0840
1156.659, 22.28711
1157.750, 76.53320
1158.839, 51.24414
1159.929, 49.89258
1161.019, 84.11914
1162.108, 76.40625
1163.198, 56.53320
1164.287, 78.31836
1165.376, 28.79102
1166.465, 143.5234
1167.553, 0.9687500
1168.642, 128.0293
1169.730, 186.2383
1170.818, 37.78320
1171.906, 145.3457
1172.994, 53.10742
1174.082, 73.65234
1175.170, 66.54688
1176.257, 152.0078
1177.344, 15.80469
1178.431, 151.3535
1179.518, 145.3086
1180.605, 34.35742
1181.691, 137.5430
1182.778, 21.44141
1183.864, 121.3203
1184.950, 4.886719
1186.036, 81.77344
1187.122, 9.605469
1188.207, 97.73242
1189.292, 37.45703
1190.378, 41.78906
1191.463, 127.3809
1192.548, 63.90234
1193.632, 86.93164
1194.717, 28.12695
1195.801, 20.63281
1196.886, 24.77734
1197.970, 34.19336
1199.054, 132.2949
1200.137, 53.04297
1201.221, 18.86133
1202.305, 103.2676
1203.388, 2.412109
1204.471, 51.83008
1205.554, 36.14062
1206.637, 53.86523
1207.719, 73.04883
1208.802, 74.06836
1209.884, 223.7246
1210.966, 165.4863
1212.048, 14.22070
1213.130, 174.9043
1214.212, 59.55859
1215.293, 39.17578
1216.374, 124.7500
1217.456, 132.4727
1218.536, 96.98633
1219.617, 46.62891
1220.698, 78.87305
1221.778, 87.47656
1222.859, 390.7656
1223.939, 247.0215
1225.019, 114.2461
1226.099, 219.5586
1227.178, 106.7148
1228.258, 108.8340
1229.337, 158.9141
1230.417, 64.95703
1231.496, 88.94922
1232.574, 248.8945
1233.653, 191.8008
1234.732, 63.66992
1235.810, 247.4844
1236.888, 142.2578
1237.966, 142.9922
1239.044, 60.68359
1240.122, 239.3125
1241.199, 232.9023
1242.277, 215.4512
1243.354, 260.9688
1244.431, 75.43750
1245.508, 259.8418
1246.585, 210.2070
1247.661, 32.82031
1248.738, 83.06055
1249.814, 182.9570
1250.890, 240.0898
1251.966, 182.1797
1253.042, 233.3516
1254.117, 127.5098
1255.193, 110.7051
1256.268, 135.5957
1257.343, 142.4512
1258.418, 234.2344
1259.493, 195.6523
1260.567, 252.1875
1261.642, 157.3164
1262.716, 256.2676
1263.790, 245.8906
1264.864, 114.3984
1265.938, 137.8906
1267.011, 381.2773
1268.085, 143.0410
1269.158, 236.6992
1270.231, 233.6699
1271.304, 149.2207
1272.377, 162.7363
1273.450, 145.3457
1274.522, 365.4395
1275.594, 148.3555
1276.666, 303.3535
1277.738, 317.1582
1278.810, 203.9609
1279.882, 96.90625
1280.953, 419.8730
1282.025, 318.9688
1283.096, 461.8438
1284.167, 201.8184
1285.238, 281.8770
1286.308, 325.2441
1287.379, 284.8027
1288.449, 268.4219
1289.519, 287.9316
1290.589, 310.8066
1291.659, 253.1836
1292.729, 374.5742
1293.798, 340.0039
1294.868, 290.0566
1295.937, 125.0391
1297.006, 217.8594
1298.075, 233.3281
1299.143, 371.1465
1300.212, 465.5059
1301.280, 110.3730
1302.348, 254.8867
1303.416, 160.3223
1304.484, 215.9883
1305.552, 314.6172
1306.620, 38.21875
1307.687, 14.63477
1308.754, 69.86523
1309.821, 382.1289
1310.888, 129.4648
1311.955, 208.6445
1313.021, 192.8438
1314.088, 175.4609
1315.154, 185.4238
1316.220, 246.3574
1317.286, 165.9258
1318.352, 287.8320
1319.417, 133.4922
1320.483, 113.6152
1321.548, 262.5234
1322.613, 336.8027
1323.678, 60.30664
1324.743, 262.3555
1325.807, 226.5723
1326.872, 198.9531
1327.936, 227.4492
1329.000, 364.7422
1330.064, 236.1562
1331.128, 7.521484
1332.191, 174.4668
1333.255, 151.6895
1334.318, 371.3848
1335.381, 328.5801
1336.444, 343.7383
1337.507, 267.3418
1338.569, 224.4238
1339.632, 280.4727
1340.694, 232.1172
1341.756, 226.0898
1342.818, 354.6016
1343.880, 409.0977
1344.941, 165.9609
1346.003, 225.7891
1347.064, 171.5801
1348.125, 193.8320
1349.186, 194.4609
1350.247, 228.9492
1351.308, 285.0391
1352.368, 321.6465
1353.428, 172.1875
1354.489, 411.7500
1355.549, 299.0898
1356.608, 273.3809
1357.668, 548.8105
1358.727, 234.4961
1359.787, 348.9492
1360.846, 233.2480
1361.905, 376.5098
1362.964, 222.8457
1364.022, 253.0332
1365.081, 283.0352
1366.139, 295.0176
1367.197, 381.4844
1368.255, 264.5254
1369.313, 311.5293
1370.371, 194.4961
1371.428, 271.4297
1372.486, 195.9219
1373.543, 345.7930
1374.600, 123.6309
1375.657, 202.7891
1376.713, 63.15430
1377.770, 332.7383
1378.826, 210.5957
1379.882, 156.0605
1380.938, 148.1387
1381.994, 126.7637
1383.050, 185.8535
1384.106, 177.4785
1385.161, 236.1543
1386.216, 280.6309
1387.271, 194.3223
1388.326, 431.0254
1389.381, 96.58203
1390.435, 161.2559
1391.490, 411.8027
1392.544, 163.8945
1393.598, 399.7402
1394.652, 85.14062
1395.705, 88.96094
1396.759, 33.95117
1397.812, 89.03711
1398.866, 84.66992
1399.919, 185.5703
1400.972, 171.9395
1402.024, 55.03906
1403.077, 58.42773
1404.129, 134.4922
1405.181, 183.5586
1406.233, 65.04492
1407.285, 42.71484
1408.337, 97.72070
1409.389, 87.73047
1410.440, 100.7227
1411.491, 101.8301
1412.542, 68.11133
1413.593, 68.08398
1414.644, 87.52344
1415.695, 43.82227
1416.745, 181.6953
1417.795, 244.7988
1418.845, 299.5098
1419.895, 145.3906
1420.945, 316.2598
1421.995, 196.0352
1423.044, 326.9551
1424.093, 163.3691
1425.142, 295.9297
1426.191, 245.7656
1427.240, 324.5918
1428.289, 138.5703
1429.337, 214.3027
1430.385, 132.3496
1431.433, 162.9258
1432.481, 136.7832
1433.529, 425.6621
1434.577, 212.4707
1435.624, 282.7559
1436.672, 113.9355
1437.719, 337.7637
1438.766, 55.39062
1439.812, 355.0293
1440.859, 371.4883
1441.905, 95.08203
1442.952, 334.9434
1443.998, 386.2148
1445.044, 332.7773
1446.090, 506.9980
1447.135, 263.5977
1448.181, 153.9844
1449.226, 324.5957
1450.271, 208.9941
1451.316, 189.9707
1452.361, 421.1953
1453.405, 404.0996
1454.450, 187.7969
1455.494, 84.97461
1456.538, 412.1738
1457.582, 112.3691
1458.626, 160.5488
1459.670, 396.7031
1460.713, 359.6309
1461.757, 296.4766
1462.800, 488.6055
1463.843, 178.7246
1464.886, 156.6680
1465.928, 221.7227
1466.971, 140.7578
1468.013, 242.7812
1469.055, 307.7891
1470.097, 249.7734
1471.139, 332.7480
1472.181, 253.7148
1473.222, 345.6426
1474.263, 140.5820
1475.305, 227.1562
1476.346, 19.20898
1477.386, 339.9863
1478.427, 168.3848
1479.468, 101.2871
1480.508, 207.2168
1481.548, 114.1270
1482.588, 130.2266
1483.628, 211.2695
1484.668, 130.5703
1485.707, 124.6484
1486.747, 172.3965
1487.786, 43.22656
1488.825, 163.3652
1489.864, 305.0020
1490.902, 88.14062
1491.941, 200.1406
1492.979, 115.2422
1494.017, 138.7949
1495.055, 110.2051
1496.093, 105.9629
1497.131, 126.6797
1498.168, 147.4258
1499.206, 104.1992
1500.243, 203.9746
1501.280, 177.7227
1502.317, 352.4512
1503.354, 60.22266
1504.390, 197.1211
1505.426, 8.968750
1506.463, 1.681641
1507.499, 81.25391
1508.535, 46.91406
1509.570, 55.85742
1510.606, 109.8242
1511.641, 0.8183590
1512.676, 33.84570
1513.711, 206.8945
1514.746, 27.67188
1515.781, 39.68359
1516.816, 148.7383
1517.850, 36.20898
1518.884, 68.83789
1519.918, 75.87891
1520.952, 135.9180
1521.986, 267.9512
1523.019, 203.9805
1524.053, 406.0098
1525.086, 332.9062
1526.119, 263.9434
1527.152, 241.9102
1528.185, 223.2598
1529.217, 233.0254
1530.250, 225.2598
1531.282, 248.8340
1532.314, 229.0293
1533.346, 108.4258
1534.377, 110.9082
1535.409, 89.44141
1536.440, 156.0117
1537.472, 264.6172
1538.503, 181.7539
1539.534, 326.8633
1540.564, 138.3340
1541.595, 55.58984
1542.625, 252.2305
1543.656, 329.7832
1544.686, 195.2012
1545.716, 247.2891
1546.745, 203.6445
1547.775, 96.81250
1548.804, 298.9766
1549.834, 195.1895
1550.863, 243.4004
1551.892, 284.6055
1552.920, 137.8184
1553.949, 356.9902
1554.977, 316.8184
1556.006, 495.8320
1557.034, 295.9180
1558.062, 83.48438
1559.089, 325.7129
1560.117, 50.76953
1561.144, 24.28125
1562.172, 244.0176
1563.199, 122.4727
1564.226, 176.2754
1565.252, 260.2148
1566.279, 221.4375
1567.305, 77.18555
1568.332, 192.9082
1569.358, 8.648438
1570.384, 44.62109
1571.409, 1.3672000E-02
1572.435, 0.0000000E+00
##END=



