##NAMES=Axinite-(Fe)
##RRUFFID=R060194
##IDEAL CHEMISTRY=Ca_4_Fe^2+^_2_Al_4_[B_2_Si_8_O_30_](OH)_2_
##LOCALITY=near Dalbandi, Baluchistan Province, Pakistan
##OWNER=RRUFF
##SOURCE=Herbert Obodda
##DESCRIPTION=Brown transparent wedge-shaped single crystal
##STATUS=The identification of this mineral has been confirmed by X-ray diffraction and chemical analysis
##URL=rruff.info/R060194
##MEASURED CHEMISTRY=Ca_2.00_(Fe^2+^_0.66_Mg_0.30_Mn_0.04_)Al_2.00_BSi_4.00_O_15_(OH)
##PIN_ID=L00952
##ORIENTATION=Laser parallel to (1 1 0). Fiducial mark perpendicular to laser is parallel to -c [0 0 -1]
53.91000, 0.0000000E+00
55.14900, 64.96021
56.38700, 167.3207
57.62600, 200.3077
58.86400, 300.0635
60.10300, 325.3214
61.34100, 210.1079
62.57900, 73.65979
63.81700, 29.71826
65.05400, 67.60437
66.29200, 64.60693
67.52900, 39.30408
68.76700, 247.7802
70.00400, 984.1816
71.24100, 1258.494
72.47700, 1016.361
73.71400, 764.4617
74.95100, 944.4790
76.18700, 1282.124
77.42300, 1290.673
78.65900, 1524.966
79.89500, 1688.431
81.13100, 1951.324
82.36700, 2199.835
83.60200, 2684.826
84.83700, 3014.384
86.07200, 3375.049
87.30800, 3840.515
88.54200, 4102.319
89.77700, 4462.102
91.01200, 4814.783
92.24600, 5794.244
93.48000, 5859.514
94.71400, 6749.925
95.94800, 6186.930
97.18200, 6406.318
98.41600, 6162.047
99.64900, 6197.057
100.8830, 6427.295
102.1160, 6399.720
103.3490, 6167.292
104.5820, 6252.979
105.8150, 6859.753
107.0470, 8079.589
108.2800, 11312.46
109.5120, 9904.188
110.7440, 12371.25
111.9760, 8517.106
113.2080, 7215.936
114.4400, 6899.703
115.6710, 6818.396
116.9030, 7015.001
118.1340, 6383.503
119.3650, 6200.886
120.5960, 5670.137
121.8270, 5317.244
123.0580, 5153.191
124.2880, 5404.968
125.5190, 5343.563
126.7490, 4863.961
127.9790, 4630.000
129.2090, 4324.195
130.4390, 4301.518
131.6680, 4200.953
132.8980, 4255.479
134.1270, 4144.095
135.3560, 3931.942
136.5850, 4048.218
137.8140, 4162.176
139.0430, 4526.043
140.2710, 5046.437
141.5000, 5335.283
142.7280, 5728.585
143.9560, 5943.276
145.1840, 6449.358
146.4120, 6963.844
147.6390, 7819.752
148.8670, 8904.100
150.0940, 10129.90
151.3210, 11285.15
152.5490, 11643.88
153.7750, 11333.08
155.0020, 10351.75
156.2290, 9442.904
157.4550, 8348.539
158.6810, 7119.654
159.9080, 6432.249
161.1340, 5844.321
162.3590, 5614.873
163.5850, 5782.896
164.8110, 6054.392
166.0360, 6605.359
167.2610, 7133.793
168.4860, 7733.688
169.7110, 8726.045
170.9360, 9881.862
172.1610, 10555.13
173.3850, 10728.86
174.6100, 10022.03
175.8340, 9268.655
177.0580, 8134.723
178.2820, 6992.229
179.5050, 5918.174
180.7290, 4956.554
181.9520, 4189.954
183.1760, 3546.884
184.3990, 3009.269
185.6220, 2696.356
186.8450, 2447.861
188.0670, 2333.782
189.2900, 2163.114
190.5120, 2237.854
191.7340, 2512.998
192.9560, 2903.545
194.1780, 3025.486
195.4000, 3226.825
196.6220, 3094.552
197.8430, 3042.668
199.0640, 2957.164
200.2860, 2896.041
201.5070, 3363.068
202.7270, 3823.623
203.9480, 4110.914
205.1690, 4757.918
206.3890, 5085.425
207.6090, 5552.844
208.8290, 6113.764
210.0490, 6433.100
211.2690, 6796.603
212.4890, 7269.646
213.7080, 7259.057
214.9280, 7542.747
216.1470, 7556.798
217.3660, 7554.059
218.5850, 7475.707
219.8030, 7219.219
221.0220, 6882.141
222.2400, 5995.057
223.4590, 5168.469
224.6770, 4147.674
225.8950, 3428.028
227.1120, 2613.931
228.3300, 2063.469
229.5480, 1646.863
230.7650, 1310.344
231.9820, 971.1494
233.1990, 884.6973
234.4160, 770.8291
235.6330, 669.5039
236.8490, 649.7686
238.0660, 651.4502
239.2820, 614.9893
240.4980, 790.9346
241.7140, 884.4385
242.9300, 1046.476
244.1460, 1115.033
245.3610, 1211.075
246.5770, 1478.077
247.7920, 1645.513
249.0070, 2147.881
250.2220, 2418.684
251.4370, 3026.899
252.6510, 3662.523
253.8660, 4078.510
255.0800, 4372.873
256.2940, 4557.584
257.5080, 4556.645
258.7220, 5394.021
259.9360, 5119.461
261.1490, 6232.770
262.3630, 4979.113
263.5760, 4705.758
264.7890, 4577.703
266.0020, 4910.957
267.2150, 5002.500
268.4270, 5083.322
269.6400, 5170.419
270.8520, 5231.785
272.0640, 4986.417
273.2760, 4915.312
274.4880, 4590.467
275.7000, 4230.885
276.9120, 3874.559
278.1230, 3567.495
279.3340, 3380.689
280.5450, 2813.145
281.7560, 2662.858
282.9670, 2456.831
284.1780, 2451.058
285.3880, 2270.534
286.5980, 2256.260
287.8090, 2212.234
289.0190, 1987.451
290.2290, 1768.912
291.4380, 1710.616
292.6480, 1621.561
293.8570, 1664.744
295.0670, 1764.165
296.2760, 1921.820
297.4850, 2134.189
298.6930, 2458.830
299.9020, 2702.181
301.1110, 3050.760
302.3190, 3414.562
303.5270, 3648.591
304.7350, 4147.840
305.9430, 4513.311
307.1510, 4790.000
308.3580, 4798.902
309.5660, 4869.021
310.7730, 4745.352
311.9800, 4517.891
313.1870, 4663.639
314.3940, 4674.592
315.6010, 4884.750
316.8070, 5510.112
318.0130, 6013.672
319.2200, 6454.433
320.4260, 6524.392
321.6310, 6172.541
322.8370, 5794.883
324.0430, 5058.418
325.2480, 4320.142
326.4540, 3668.053
327.6590, 3374.149
328.8640, 3072.429
330.0680, 3019.891
331.2730, 3192.531
332.4780, 3243.351
333.6820, 3734.347
334.8860, 4112.517
336.0900, 4697.858
337.2940, 5608.372
338.4980, 6458.055
339.7010, 7546.905
340.9050, 8794.921
342.1080, 10209.10
343.3110, 11475.44
344.5140, 11896.94
345.7170, 11704.61
346.9200, 11047.50
348.1220, 9991.635
349.3240, 8442.007
350.5270, 7061.615
351.7290, 5841.467
352.9310, 4439.561
354.1320, 3453.893
355.3340, 2452.467
356.5350, 1634.291
357.7370, 1021.359
358.9380, 364.6592
360.1390, 24.18164
361.3400, 285.0830
362.5400, 354.1797
363.7410, 539.1289
364.9410, 652.9795
366.1410, 856.7646
367.3410, 600.5527
368.5410, 160.2676
369.7410, 322.7490
370.9400, 141.2100
372.1400, 200.4365
373.3390, 262.4551
374.5380, 42.47266
375.7370, 65.38574
376.9360, 243.9658
378.1350, 362.9082
379.3330, 668.9385
380.5310, 996.0879
381.7300, 1629.888
382.9280, 2206.373
384.1260, 3066.236
385.3230, 4623.699
386.5210, 4961.667
387.7180, 6027.714
388.9160, 7216.877
390.1130, 7310.141
391.3100, 7754.279
392.5060, 7633.386
393.7030, 6987.930
394.9000, 6231.883
396.0960, 5398.115
397.2920, 4731.098
398.4880, 3995.534
399.6840, 3387.687
400.8800, 2844.874
402.0750, 2363.545
403.2710, 1993.524
404.4660, 1693.692
405.6610, 1492.333
406.8560, 1382.762
408.0510, 1364.886
409.2450, 1507.482
410.4400, 1665.803
411.6340, 1839.853
412.8280, 2404.414
414.0220, 2789.078
415.2160, 3798.842
416.4100, 4773.707
417.6030, 5825.670
418.7970, 6570.729
419.9900, 7291.885
421.1830, 7867.134
422.3760, 8413.476
423.5690, 9256.905
424.7610, 9873.425
425.9540, 10132.04
427.1460, 10226.74
428.3380, 10182.52
429.5300, 9640.382
430.7220, 8989.329
431.9140, 7648.359
433.1050, 6376.469
434.2970, 5198.656
435.4880, 4114.920
436.6790, 3276.260
437.8700, 2465.674
439.0610, 1924.159
440.2510, 1505.717
441.4420, 1439.346
442.6320, 1302.043
443.8220, 1332.806
445.0120, 1247.637
446.2020, 1165.071
447.3910, 1057.879
448.5810, 954.5098
449.7700, 828.5918
450.9600, 773.9629
452.1490, 649.9307
453.3370, 670.1865
454.5260, 681.4990
455.7150, 650.8633
456.9030, 602.2832
458.0910, 562.7539
459.2800, 634.4854
460.4670, 655.5967
461.6550, 844.4648
462.8430, 896.1299
464.0300, 1086.842
465.2180, 1419.596
466.4050, 1641.395
467.5920, 1876.235
468.7790, 2061.117
469.9650, 2567.039
471.1520, 2608.000
472.3380, 3138.997
473.5250, 3526.030
474.7110, 3789.099
475.8970, 4461.201
477.0820, 5581.336
478.2680, 6641.502
479.4540, 8025.697
480.6390, 9656.924
481.8240, 11350.18
483.0090, 13295.46
484.1940, 14901.77
485.3780, 15751.10
486.5630, 15480.45
487.7470, 14045.83
488.9320, 11644.23
490.1160, 9298.646
491.3000, 7241.084
492.4830, 5818.539
493.6670, 4576.010
494.8500, 3110.494
496.0340, 2567.991
497.2170, 2253.500
498.4000, 2226.018
499.5820, 2065.544
500.7650, 2109.076
501.9480, 2076.614
503.1300, 1872.137
504.3120, 1903.087
505.4940, 1885.278
506.6760, 1834.257
507.8580, 1664.439
509.0390, 1416.252
510.2210, 1107.199
511.4020, 899.9492
512.5830, 601.1758
513.7640, 484.4590
514.9450, 141.6895
516.1250, 77.37988
517.3060, 158.0391
518.4860, 239.5518
519.6660, 446.3301
520.8460, 320.3340
522.0260, 536.4717
523.2060, 522.8359
524.3850, 373.4385
525.5650, 526.2471
526.7440, 512.3301
527.9230, 428.7129
529.1020, 406.3691
530.2810, 265.3066
531.4590, 192.4756
532.6380, 98.84961
533.8160, 109.4170
534.9940, 145.1865
536.1720, 61.17969
537.3500, 60.35547
538.5270, 116.2812
539.7050, 32.81348
540.8820, 175.2002
542.0590, 132.4971
543.2360, 306.6885
544.4130, 202.8232
545.5900, 172.8721
546.7660, 349.8223
547.9430, 359.7197
549.1190, 336.5654
550.2950, 223.3535
551.4710, 400.0508
552.6470, 428.6982
553.8220, 515.2979
554.9980, 806.8584
556.1730, 766.3799
557.3480, 1046.861
558.5230, 1319.302
559.6980, 1672.702
560.8730, 1820.098
562.0470, 1951.372
563.2220, 2066.642
564.3960, 2110.866
565.5700, 2072.047
566.7440, 2150.182
567.9170, 1917.269
569.0910, 1880.309
570.2640, 2060.300
571.4380, 2052.242
572.6110, 2251.136
573.7840, 2412.979
574.9570, 2525.771
576.1290, 2521.763
577.3020, 2314.201
578.4740, 2368.838
579.6460, 2156.420
580.8180, 1976.948
581.9900, 1807.422
583.1620, 1856.841
584.3330, 1768.204
585.5040, 1936.511
586.6760, 1845.761
587.8470, 1917.953
589.0180, 1924.086
590.1880, 1780.161
591.3590, 1671.178
592.5290, 1556.134
593.7000, 1522.029
594.8700, 1216.865
596.0400, 1101.639
597.2090, 961.3506
598.3790, 1119.000
599.5490, 945.5859
600.7180, 1172.109
601.8870, 1265.569
603.0560, 1493.964
604.2250, 1788.295
605.3940, 2032.561
606.5620, 2447.760
607.7300, 3128.895
608.8990, 3794.047
610.0670, 4393.047
611.2350, 5470.979
612.4020, 6380.845
613.5700, 7286.641
614.7370, 8475.368
615.9050, 9375.028
617.0720, 10479.62
618.2390, 11078.14
619.4060, 11585.59
620.5720, 11225.97
621.7390, 10787.28
622.9050, 9849.516
624.0710, 8360.683
625.2370, 6964.780
626.4030, 5712.802
627.5690, 4437.755
628.7340, 3551.633
629.9000, 2751.439
631.0650, 2035.173
632.2300, 1656.833
633.3950, 1330.558
634.5600, 1410.932
635.7240, 1234.369
636.8890, 1143.733
638.0530, 1423.023
639.2170, 1311.239
640.3810, 1488.381
641.5450, 1703.445
642.7080, 1737.312
643.8720, 1780.229
645.0350, 1874.354
646.1980, 1922.974
647.3610, 1868.333
648.5240, 1662.305
649.6870, 1524.746
650.8490, 1450.888
652.0120, 1444.624
653.1740, 1353.621
654.3360, 1358.860
655.4980, 1288.967
656.6600, 1148.515
657.8210, 1206.144
658.9830, 1097.048
660.1440, 1154.145
661.3050, 1182.771
662.4660, 1354.949
663.6270, 1458.681
664.7870, 1793.656
665.9480, 2104.982
667.1080, 2548.000
668.2680, 3057.139
669.4280, 3641.047
670.5880, 4344.617
671.7480, 5101.166
672.9070, 6036.668
674.0670, 6766.262
675.2260, 7405.479
676.3850, 8044.340
677.5440, 8145.980
678.7030, 7937.922
679.8610, 7132.465
681.0200, 6225.343
682.1780, 5686.234
683.3360, 4711.689
684.4940, 3975.884
685.6520, 3311.715
686.8090, 2852.555
687.9670, 2815.431
689.1240, 2465.651
690.2810, 2545.440
691.4380, 2520.963
692.5950, 2554.053
693.7520, 2729.887
694.9080, 2887.754
696.0650, 3132.551
697.2210, 3461.281
698.3770, 4394.944
699.5330, 4967.539
700.6880, 6079.067
701.8440, 7195.529
702.9990, 8572.924
704.1550, 10503.25
705.3100, 12859.52
706.4650, 15529.71
707.6190, 18391.84
708.7740, 21691.91
709.9290, 24978.91
711.0830, 28089.85
712.2370, 31054.72
713.3910, 32521.53
714.5450, 32817.28
715.6980, 31253.96
716.8520, 28660.58
718.0050, 25098.13
719.1580, 21058.63
720.3110, 17565.06
721.4640, 14334.43
722.6170, 11527.74
723.7700, 9241.980
724.9220, 7604.170
726.0740, 6049.295
727.2260, 5094.363
728.3780, 4145.371
729.5300, 3480.320
730.6810, 2885.211
731.8330, 2476.042
732.9840, 2107.816
734.1350, 1818.533
735.2860, 1437.193
736.4370, 1397.796
737.5880, 1082.343
738.7380, 1062.835
739.8880, 945.2715
741.0390, 918.6533
742.1890, 749.9805
743.3380, 810.2549
744.4880, 674.4746
745.6380, 671.6426
746.7870, 507.7568
747.9360, 545.8193
749.0850, 532.8301
750.2340, 609.7900
751.3830, 711.6992
752.5310, 779.2393
753.6800, 824.3701
754.8280, 1022.134
755.9760, 1165.848
757.1240, 1358.517
758.2720, 1575.137
759.4190, 1749.712
760.5670, 2043.243
761.7140, 2261.729
762.8610, 2501.170
764.0080, 2652.568
765.1550, 2693.925
766.3020, 3009.238
767.4480, 3002.512
768.5950, 2838.745
769.7410, 2802.938
770.8870, 2449.092
772.0330, 2203.207
773.1780, 1943.283
774.3240, 1514.323
775.4690, 1333.325
776.6140, 1075.292
777.7590, 792.2236
778.9040, 581.1201
780.0490, 244.9824
781.1940, 224.8018
782.3380, 84.57812
783.4820, 108.7129
784.6260, 44.16602
785.7700, 136.7461
786.9140, 258.4980
788.0580, 177.4844
789.2010, 350.6611
790.3450, 343.1162
791.4880, 303.8438
792.6310, 330.8213
793.7730, 324.0400
794.9160, 370.4473
796.0590, 508.0439
797.2010, 299.8789
798.3430, 423.7852
799.4850, 500.8574
800.6270, 443.0771
801.7690, 301.4150
802.9100, 347.8281
804.0520, 243.8584
805.1930, 192.7725
806.3340, 146.2383
807.4750, 81.67383
808.6160, 70.07617
809.7560, 346.5479
810.8970, 501.2441
812.0370, 623.0176
813.1770, 766.8770
814.3170, 772.0859
815.4570, 817.9629
816.5960, 742.8301
817.7360, 735.9062
818.8750, 712.0029
820.0140, 539.1318
821.1530, 575.2656
822.2920, 311.4219
823.4310, 430.6035
824.5690, 283.7910
825.7070, 214.9824
826.8460, 166.1836
827.9840, 115.4092
829.1220, 123.8389
830.2590, 116.8730
831.3970, 179.1074
832.5340, 210.3418
833.6710, 264.5771
834.8080, 274.8145
835.9450, 399.0547
837.0820, 286.2988
838.2190, 419.5449
839.3550, 518.7979
840.4910, 488.0547
841.6270, 745.3174
842.7630, 871.5879
843.8990, 945.8652
845.0350, 941.1514
846.1700, 1187.447
847.3060, 1388.752
848.4410, 1522.066
849.5760, 1744.393
850.7100, 1746.730
851.8450, 1912.501
852.9800, 1965.443
854.1140, 2102.820
855.2480, 2227.214
856.3820, 2273.621
857.5160, 2189.044
858.6500, 2376.484
859.7830, 2471.941
860.9170, 2214.418
862.0500, 2362.911
863.1830, 2316.425
864.3160, 2372.959
865.4480, 2294.513
866.5810, 2283.089
867.7130, 2328.687
868.8460, 2179.696
869.9780, 2062.951
871.1100, 1986.618
872.2410, 1794.312
873.3730, 1805.029
874.5050, 2012.774
875.6360, 1833.547
876.7670, 1663.346
877.8980, 1974.174
879.0290, 1846.037
880.1590, 1602.931
881.2900, 1880.862
882.4200, 1884.826
883.5500, 1891.753
884.6800, 1963.812
885.8100, 2080.136
886.9400, 2251.062
888.0690, 2420.245
889.1990, 2620.473
890.3280, 2857.760
891.4570, 3179.101
892.5860, 3681.500
893.7140, 4166.956
894.8430, 4793.486
895.9710, 5353.514
897.1000, 5949.731
898.2280, 6642.418
899.3560, 7217.189
900.4830, 7980.082
901.6110, 8766.015
902.7380, 9315.992
903.8660, 10048.01
904.9930, 10473.10
906.1200, 10978.28
907.2460, 10772.50
908.3730, 10861.76
909.5000, 10091.09
910.6260, 9499.454
911.7520, 8691.898
912.8780, 7990.411
914.0040, 7078.990
915.1290, 6223.637
916.2550, 5430.490
917.3800, 4645.301
918.5050, 4251.922
919.6300, 3727.053
920.7550, 3222.520
921.8800, 3171.451
923.0040, 2878.986
924.1290, 2712.878
925.2530, 2807.162
926.3770, 2775.227
927.5010, 2806.033
928.6250, 2933.094
929.7480, 3104.716
930.8720, 3179.349
931.9950, 3268.680
933.1180, 3379.452
934.2410, 3543.831
935.3640, 3664.708
936.4860, 3734.539
937.6090, 3958.593
938.7310, 4283.117
939.8530, 4486.517
940.9750, 5060.485
942.0970, 5494.746
943.2180, 6322.395
944.3400, 6986.154
945.4610, 7857.236
946.5820, 9009.400
947.7030, 10255.64
948.8240, 11812.96
949.9450, 12983.37
951.0650, 14958.85
952.1860, 16043.42
953.3060, 17943.06
954.4260, 19232.78
955.5460, 21180.60
956.6650, 22881.49
957.7850, 24944.47
958.9040, 27393.53
960.0230, 29612.67
961.1420, 32194.88
962.2610, 34716.19
963.3800, 36570.59
964.4990, 37820.07
965.6170, 37791.61
966.7350, 36704.26
967.8530, 34176.99
968.9710, 30941.79
970.0890, 28389.67
971.2070, 25360.64
972.3240, 23241.69
973.4410, 21794.83
974.5580, 20737.03
975.6750, 20211.33
976.7920, 20140.71
977.9090, 20185.17
979.0250, 20506.72
980.1410, 20214.35
981.2580, 20020.06
982.3740, 19351.84
983.4890, 18485.71
984.6050, 17553.68
985.7200, 16438.72
986.8360, 15905.86
987.9510, 15287.07
989.0660, 14825.37
990.1810, 14680.76
991.2950, 14335.22
992.4100, 14163.77
993.5240, 13845.40
994.6390, 13566.12
995.7530, 13592.91
996.8660, 13306.78
997.9800, 13538.74
999.0940, 13641.77
1000.207, 13933.89
1001.320, 14035.09
1002.433, 14292.38
1003.546, 13957.74
1004.659, 13767.18
1005.772, 13066.71
1006.884, 12226.33
1007.996, 10953.13
1009.108, 10118.90
1010.220, 8994.774
1011.332, 8069.712
1012.444, 6952.888
1013.555, 6136.300
1014.666, 5568.639
1015.777, 4741.043
1016.888, 4221.309
1017.999, 3680.273
1019.110, 3407.247
1020.220, 3275.461
1021.331, 2902.541
1022.441, 2771.875
1023.551, 2848.062
1024.661, 2706.832
1025.770, 2532.263
1026.880, 2486.269
1027.989, 2633.348
1029.098, 2423.662
1030.207, 2535.332
1031.316, 2198.674
1032.425, 1996.326
1033.533, 1978.268
1034.642, 2001.196
1035.750, 1532.460
1036.858, 1728.165
1037.966, 1519.092
1039.073, 1617.117
1040.181, 1568.033
1041.288, 1502.021
1042.396, 1508.427
1043.503, 1778.550
1044.610, 1834.317
1045.716, 1880.160
1046.823, 1990.684
1047.929, 2131.918
1049.036, 2449.884
1050.142, 2605.303
1051.248, 3020.305
1052.353, 3206.984
1053.459, 3540.007
1054.564, 3716.464
1055.670, 4098.516
1056.775, 4193.180
1057.880, 4386.535
1058.985, 4370.414
1060.089, 4333.137
1061.194, 4421.441
1062.298, 4507.028
1063.402, 4116.842
1064.506, 3990.953
1065.610, 3706.485
1066.713, 3233.055
1067.817, 2900.229
1068.920, 2681.422
1070.023, 2515.806
1071.126, 2335.123
1072.229, 2479.577
1073.332, 2490.492
1074.435, 2607.379
1075.537, 2653.433
1076.639, 2780.917
1077.741, 3216.982
1078.843, 3596.688
1079.945, 3856.995
1081.046, 4103.502
1082.148, 4512.770
1083.249, 4599.209
1084.350, 4591.150
1085.451, 4614.213
1086.551, 4248.776
1087.652, 3733.635
1088.752, 3336.362
1089.853, 2784.047
1090.953, 2639.771
1092.053, 2134.531
1093.152, 1936.330
1094.252, 1688.447
1095.351, 1688.320
1096.451, 1487.228
1097.550, 1467.780
1098.649, 1664.760
1099.748, 1891.026
1100.846, 1708.128
1101.945, 2002.207
1103.043, 2050.540
1104.141, 2244.683
1105.239, 2442.855
1106.337, 2509.061
1107.434, 2494.293
1108.532, 2489.374
1109.629, 2524.666
1110.726, 2222.986
1111.823, 2255.334
1112.920, 1970.706
1114.017, 1866.107
1115.113, 1739.532
1116.210, 1598.072
1117.306, 1623.316
1118.402, 1519.300
1119.498, 1778.820
1120.593, 1717.850
1121.689, 1847.002
1122.784, 1603.589
1123.879, 1794.195
1124.974, 1459.822
1126.069, 1456.469
1127.164, 1110.133
1128.259, 956.8154
1129.353, 804.5156
1130.447, 652.2334
1131.541, 428.9668
1132.635, 284.9932
1133.729, 215.7559
1134.822, 309.5342
1135.916, 202.3271
1137.009, 111.6475
1138.102, 245.7354
1139.195, 5.334961
1140.288, 42.50293
1141.380, 8.901367
1142.473, 163.7588
1143.565, 59.37305
1144.657, 19.51074
1145.749, 56.64551
1146.841, 6.589844
1147.932, 128.4717
1149.024, 92.63867
1150.115, 88.82617
1151.206, 64.01855
1152.297, 20.22461
1153.388, 59.62207
1154.479, 142.6543
1155.569, 109.9102
1156.659, 119.2139
1157.750, 106.5586
1158.839, 173.9395
1159.929, 139.3926
1161.019, 65.89062
1162.108, 88.58496
1163.198, 197.9404
1164.287, 309.5615
1165.376, 5.337891
1166.465, 12.12305
1167.553, 96.07812
1168.642, 115.7246
1169.730, 161.5908
1170.818, 61.45410
1171.906, 64.49414
1172.994, 56.47168
1174.082, 52.52051
1175.170, 88.49219
1176.257, 85.56738
1177.344, 59.70605
1178.431, 50.88867
1179.518, 123.1191
1180.605, 94.43848
1181.691, 67.83008
1182.778, 97.71582
1183.864, 138.7510
1184.950, 93.31934
1186.036, 84.02832
1187.122, 22.63672
1188.207, 104.6475
1189.292, 95.08203
1190.378, 181.0938
1191.463, 138.7480
1192.548, 169.7002
1193.632, 7.209961
1194.717, 39.92773
1195.801, 168.1416
1196.886, 179.7100
1197.970, 24.55859
1199.054, 143.0098
1200.137, 180.2568
1201.221, 106.8223
1202.305, 24.75684
1203.388, 11.55957
1204.471, 54.82617
1205.554, 135.4600
1206.637, 104.8262
1207.719, 81.57715
1208.802, 97.56836
1209.884, 191.4902
1210.966, 116.5215
1212.048, 93.67578
1213.130, 239.6963
1214.212, 292.1631
1215.293, 197.5957
1216.374, 296.2686
1217.456, 49.61621
1218.536, 105.8760
1219.617, 292.8301
1220.698, 206.5547
1221.778, 308.0859
1222.859, 338.0498
1223.939, 42.83008
1225.019, 312.9902
1226.099, 338.5732
1227.178, 113.0312
1228.258, 363.6836
1229.337, 172.6582
1230.417, 139.2441
1231.496, 224.4043
1232.574, 185.8545
1233.653, 342.2451
1234.732, 310.7568
1235.810, 262.4492
1236.888, 287.3320
1237.966, 104.6357
1239.044, 306.9141
1240.122, 246.1309
1241.199, 316.0498
1242.277, 415.5547
1243.354, 288.1191
1244.431, 400.8496
1245.508, 141.0312
1246.585, 192.8516
1247.661, 211.0420
1248.738, 428.4238
1249.814, 170.2139
1250.890, 213.1660
1251.966, 384.3213
1253.042, 375.9727
1254.117, 442.6084
1255.193, 287.0840
1256.268, 340.1855
1257.343, 335.7119
1258.418, 529.9551
1259.493, 567.2559
1260.567, 415.2725
1261.642, 264.0439
1262.716, 472.4072
1263.790, 339.8594
1264.864, 391.1572
1265.938, 252.4883
1267.011, 277.7490
1268.085, 300.3691
1269.158, 406.8877
1270.231, 258.5732
1271.304, 440.8389
1272.377, 431.9668
1273.450, 478.1787
1274.522, 518.9307
1275.594, 302.3965
1276.666, 297.0996
1277.738, 588.6719
1278.810, 422.9668
1279.882, 353.4756
1280.953, 346.8760
1282.025, 652.0723
1283.096, 667.3154
1284.167, 334.8242
1285.238, 622.7432
1286.308, 528.6250
1287.379, 548.7705
1288.449, 522.9316
1289.519, 514.3418
1290.589, 350.4502
1291.659, 394.1846
1292.729, 594.5273
1293.798, 503.0713
1294.868, 622.0029
1295.937, 388.2695
1297.006, 364.2617
1298.075, 389.5869
1299.143, 432.0703
1300.212, 322.2578
1301.280, 535.6484
1302.348, 530.1689
1303.416, 341.3281
1304.484, 349.3711
1305.552, 323.7393
1306.620, 650.4717
1307.687, 495.2695
1308.754, 301.2783
1309.821, 490.6650
1310.888, 558.9463
1311.955, 467.2949
1313.021, 453.4141
1314.088, 275.2891
1315.154, 360.3096
1316.220, 353.8857
1317.286, 495.6895
1318.352, 317.2754
1319.417, 506.1582
1320.483, 335.1650
1321.548, 524.9785
1322.613, 353.1162
1323.678, 509.9863
1324.743, 262.4600
1325.807, 300.7520
1326.872, 374.3350
1327.936, 525.9570
1329.000, 393.3398
1330.064, 549.4150
1331.128, 450.1670
1332.191, 521.5986
1333.255, 493.8389
1334.318, 354.7041
1335.381, 539.2334
1336.444, 428.6514
1337.507, 524.8936
1338.569, 287.2324
1339.632, 455.6680
1340.694, 535.8877
1341.756, 598.9199
1342.818, 586.1543
1343.880, 540.0146
1344.941, 546.4023
1346.003, 461.1191
1347.064, 248.7715
1348.125, 306.5244
1349.186, 444.7842
1350.247, 542.6426
1351.308, 240.6475
1352.368, 476.5117
1353.428, 355.8945
1354.489, 265.2520
1355.549, 457.9736
1356.608, 427.2803
1357.668, 317.8994
1358.727, 448.8721
1359.787, 405.1025
1360.846, 362.7461
1361.905, 314.4736
1362.964, 272.9053
1364.022, 330.0371
1365.081, 308.1465
1366.139, 411.8174
1367.197, 418.8535
1368.255, 275.8594
1369.313, 215.8369
1370.371, 436.7705
1371.428, 348.6797
1372.486, 369.8594
1373.543, 280.7158
1374.600, 363.7900
1375.657, 381.1250
1376.713, 370.9238
1377.770, 313.2598
1378.826, 511.5820
1379.882, 634.3516
1380.938, 488.0596
1381.994, 380.1689
1383.050, 573.8340
1384.106, 425.4805
1385.161, 348.4170
1386.216, 437.2363
1387.271, 369.2334
1388.326, 387.7871
1389.381, 291.0205
1390.435, 303.4023
1391.490, 239.1816
1392.544, 149.2793
1393.598, 179.1729
1394.652, 202.2949
1395.705, 304.3428
1396.759, 176.7920
1397.812, 269.6982
1398.866, 152.0146
1399.919, 200.6406
1400.972, 213.9082
1402.024, 120.3252
1403.077, 110.3535
1404.129, 172.3662
1405.181, 101.5557
1406.233, 29.84863
1407.285, 166.4531
1408.337, 276.7666
1409.389, 305.8867
1410.440, 10.68848
1411.491, 134.2520
1412.542, 89.99707
1413.593, 38.87598
1414.644, 221.3945
1415.695, 26.60742
1416.745, 152.2119
1417.795, 160.6436
1418.845, 247.0186
1419.895, 164.5723
1420.945, 134.3740
1421.995, 273.0303
1423.044, 318.0996
1424.093, 216.1670
1425.142, 307.4883
1426.191, 53.56152
1427.240, 102.5967
1428.289, 282.3037
1429.337, 188.8076
1430.385, 283.1426
1431.433, 305.9346
1432.481, 3.595703
1433.529, 266.7119
1434.577, 285.2900
1435.624, 55.53320
1436.672, 299.3018
1437.719, 101.4404
1438.766, 61.19238
1439.812, 139.9229
1440.859, 94.70312
1441.905, 244.4463
1442.952, 206.1553
1443.998, 151.0361
1445.044, 169.1074
1446.090, 20.45020
1447.135, 175.0010
1448.181, 107.4541
1449.226, 170.6445
1450.271, 264.4326
1451.316, 131.5029
1452.361, 238.7422
1453.405, 26.46094
1454.450, 20.09082
1455.494, 33.13477
1456.538, 245.4531
1457.582, 17.78320
1458.626, 20.18359
1459.670, 186.3877
1460.713, 173.1279
1461.757, 234.9053
1462.800, 74.52246
1463.843, 122.8174
1464.886, 113.5820
1465.928, 303.1084
1466.971, 335.7148
1468.013, 179.0713
1469.055, 23.22461
1470.097, 227.0078
1471.139, 89.93848
1472.181, 136.7510
1473.222, 6.372070
1474.263, 14.49805
1475.305, 32.78906
1476.346, 135.1484
1477.386, 17.37695
1478.427, 160.7354
1479.468, 147.7559
1480.508, 191.0547
1481.548, 228.0820
1482.588, 8.671875
1483.628, 0.5068360
1484.668, 291.1318
1485.707, 124.0098
1486.747, 49.50586
1487.786, 40.82031
1488.825, 342.5596
1489.864, 355.6270
1490.902, 18.13086
1491.941, 306.3652
1492.979, 211.1768
1494.017, 230.1289
1495.055, 203.7598
1496.093, 194.6680
1497.131, 29.84375
1498.168, 70.28516
1499.206, 277.6455
1500.243, 199.9316
1501.280, 316.0371
1502.317, 79.90430
1503.354, 51.19727
1504.390, 79.74707
1505.426, 128.0361
1506.463, 14.61523
1507.499, 225.0693
1508.535, 220.2490
1509.570, 28.77246
1510.606, 35.46191
1511.641, 12.88477
1512.676, 340.3506
1513.711, 181.4004
1514.746, 8.416016
1515.781, 181.0078
1516.816, 251.0771
1517.850, 156.8691
1518.884, 150.2539
1519.918, 22.79395
1520.952, 59.72754
1521.986, 53.28906
1523.019, 192.5859
1524.053, 16.11523
1525.086, 201.6504
1526.119, 32.85938
1527.152, 233.6582
1528.185, 60.21680
1529.217, 218.0537
1530.250, 18.78418
1531.282, 30.85449
1532.314, 102.7441
1533.346, 249.3486
1534.377, 113.8047
1535.409, 276.9902
1536.440, 177.8145
1537.472, 250.0400
1538.503, 180.3867
1539.534, 219.5264
1540.564, 290.1621
1541.595, 161.0693
1542.625, 209.5566
1543.656, 209.7930
1544.686, 61.93652
1545.716, 211.0469
1546.745, 238.7549
1547.775, 183.3438
1548.804, 142.1748
1549.834, 225.9199
1550.863, 104.0400
1551.892, 322.7578
1552.920, 397.7725
1553.949, 343.7910
1554.977, 371.6816
1556.006, 454.3984
1557.034, 295.9697
1558.062, 203.5254
1559.089, 31.39551
1560.117, 221.3438
1561.144, 132.4209
1562.172, 91.54883
1563.199, 22.60547
1564.226, 173.9180
1565.252, 89.58203
1566.279, 127.3037
1567.305, 141.2031
1568.332, 49.68652
1569.358, 101.8408
1570.384, 117.7783
1571.409, 144.4775
1572.435, 0.0000000E+00
##END=



