##NAMES=Axinite-(Fe)
##RRUFFID=R060183
##IDEAL CHEMISTRY=Ca_4_Fe^2+^_2_Al_4_[B_2_Si_8_O_30_](OH)_2_
##LOCALITY=Skagit Bluffs, near Manning Park, British Columbia, Canada
##OWNER=RRUFF
##SOURCE=Lloyd Twaites
##DESCRIPTION=Light-pink transparent axe-head-shaped single crystal
##STATUS=The identification of this mineral has been confirmed by X-ray diffraction and chemical analysis
##URL=rruff.info/R060183
##MEASURED CHEMISTRY=Ca_2.00_(Fe^2+^_0.58_Mn_0.23_Mg_0.19_)Al_2.00_B_1.00_Si_4.00_O_15_(OH)
##PIN_ID=L01506
##ORIENTATION=Laser parallel to (-1 -1 0). Fiducial mark perpendicular to laser is parallel to c [0 0 1]
52.67100, 0.0000000E+00
53.91000, 72.64771
55.14900, 159.4263
56.38700, 223.6500
57.62600, 268.1222
58.86400, 395.4202
60.10300, 678.5330
61.34100, 498.4761
62.57900, 307.4792
63.81700, 136.6375
65.05400, 10.46619
66.29200, 122.2853
67.52900, 148.2606
68.76700, 41.79956
70.00400, 166.7307
71.24100, 232.0022
72.47700, 228.7122
73.71400, 291.5549
74.95100, 409.3708
76.18700, 443.1096
77.42300, 648.1660
78.65900, 643.9771
79.89500, 687.7749
81.13100, 907.4016
82.36700, 1436.716
83.60200, 1994.594
84.83700, 2417.922
86.07200, 2572.598
87.30800, 2955.532
88.54200, 3528.637
89.77700, 4493.835
91.01200, 5655.003
92.24600, 6968.987
93.48000, 7783.645
94.71400, 8417.860
95.94800, 8673.587
97.18200, 8753.796
98.41600, 8869.438
99.64900, 9290.453
100.8830, 9691.788
102.1160, 10091.41
103.3490, 10711.28
104.5820, 11817.37
105.8150, 13476.65
107.0470, 15509.09
108.2800, 15209.76
109.5120, 17915.39
110.7440, 14378.19
111.9760, 12148.09
113.2080, 10745.04
114.4400, 9861.041
115.6710, 9256.072
116.9030, 8407.118
118.1340, 7806.160
119.3650, 7206.191
120.5960, 6837.190
121.8270, 7031.148
123.0580, 7147.051
124.2880, 7365.884
125.5190, 7413.636
126.7490, 7548.148
127.9790, 7614.939
129.2090, 7613.968
130.4390, 7339.187
131.6680, 7119.588
132.8980, 6767.135
134.1270, 6591.689
135.3560, 6960.497
136.5850, 7218.929
137.8140, 8388.258
139.0430, 9902.472
140.2710, 11178.38
141.5000, 11832.83
142.7280, 11707.73
143.9560, 11273.08
145.1840, 10853.89
146.4120, 10930.18
147.6390, 10910.96
148.8670, 10838.25
150.0940, 10464.09
151.3210, 10192.46
152.5490, 10036.37
153.7750, 9744.846
155.0020, 9579.865
156.2290, 9339.435
157.4550, 8757.558
158.6810, 7868.224
159.9080, 7352.440
161.1340, 7351.201
162.3590, 7485.506
163.5850, 8227.353
164.8110, 9490.735
166.0360, 11007.65
167.2610, 13084.11
168.4860, 15499.09
169.7110, 17076.61
170.9360, 17241.65
172.1610, 16721.21
173.3850, 14737.30
174.6100, 12564.90
175.8340, 10585.01
177.0580, 8549.646
178.2820, 6824.786
179.5050, 5334.430
180.7290, 4226.578
181.9520, 3398.229
183.1760, 2759.375
184.3990, 2438.095
185.6220, 2439.145
186.8450, 2488.762
188.0670, 2892.861
189.2900, 3470.441
190.5120, 4319.498
191.7340, 5024.027
192.9560, 5494.025
194.1780, 5639.490
195.4000, 5676.416
196.6220, 5849.803
197.8430, 5826.639
199.0640, 6225.930
200.2860, 6803.188
201.5070, 8178.936
202.7270, 9182.118
203.9480, 10701.54
205.1690, 11469.70
206.3890, 12926.36
207.6090, 14068.34
208.8290, 14948.91
210.0490, 15369.67
211.2690, 15481.71
212.4890, 14839.87
213.7080, 14037.89
214.9280, 12979.96
216.1470, 11603.56
217.3660, 10437.57
218.5850, 9295.926
219.8030, 7711.331
221.0220, 6368.917
222.2400, 5076.484
223.4590, 4037.537
224.6770, 3026.794
225.8950, 2316.248
227.1120, 1720.285
228.3300, 1290.468
229.5480, 904.7910
230.7650, 793.8496
231.9820, 696.4297
233.1990, 751.3311
234.4160, 854.7588
235.6330, 1122.804
236.8490, 1381.513
238.0660, 1879.907
239.2820, 2276.997
240.4980, 2896.776
241.7140, 3357.220
242.9300, 3659.350
244.1460, 4121.154
245.3610, 4475.537
246.5770, 4381.530
247.7920, 4435.097
249.0070, 4585.152
250.2220, 4799.644
251.4370, 4961.535
252.6510, 5188.807
253.8660, 5236.457
255.0800, 5067.480
256.2940, 4800.869
257.5080, 4755.627
258.7220, 4565.239
259.9360, 4331.257
261.1490, 4408.027
262.3630, 4124.191
263.5760, 4258.701
264.7890, 4761.549
266.0020, 5264.729
267.2150, 6283.241
268.4270, 7120.080
269.6400, 8064.241
270.8520, 8699.722
272.0640, 9586.520
273.2760, 9837.625
274.4880, 9666.050
275.7000, 9214.781
276.9120, 8251.824
278.1230, 7333.178
279.3340, 6253.846
280.5450, 5335.824
281.7560, 4426.112
282.9670, 3871.711
284.1780, 3326.612
285.3880, 3185.816
286.5980, 3141.319
287.8090, 3578.120
289.0190, 3997.215
290.2290, 4765.602
291.4380, 5778.282
292.6480, 6538.255
293.8570, 7602.512
295.0670, 8628.061
296.2760, 9593.891
297.4850, 10558.00
298.6930, 11175.40
299.9020, 12149.07
301.1110, 12679.02
302.3190, 13336.24
303.5270, 13640.74
304.7350, 13890.50
305.9430, 13283.54
307.1510, 12336.83
308.3580, 11292.40
309.5660, 10274.22
310.7730, 9260.312
311.9800, 8860.652
313.1870, 8472.251
314.3940, 8834.103
315.6010, 9509.208
316.8070, 10246.56
318.0130, 10610.16
319.2200, 10556.01
320.4260, 9929.101
321.6310, 8703.431
322.8370, 7525.004
324.0430, 6307.811
325.2480, 5362.416
326.4540, 4270.133
327.6590, 3707.641
328.8640, 3164.379
330.0680, 2741.345
331.2730, 2548.537
332.4780, 2670.951
333.6820, 3009.588
334.8860, 3601.443
336.0900, 4365.520
337.2940, 5591.809
338.4980, 7106.314
339.7010, 8932.033
340.9050, 10467.96
342.1080, 11595.10
343.3110, 12322.44
344.5140, 12562.98
345.7170, 12142.81
346.9200, 11861.93
348.1220, 11529.36
349.3240, 11214.09
350.5270, 10760.77
351.7290, 9922.681
352.9310, 8574.015
354.1320, 6892.008
355.3340, 6816.535
356.5350, 7023.069
357.7370, 2526.907
358.9380, 1359.061
360.1390, 636.5254
361.3400, 54.73926
362.5400, 418.7500
363.7410, 660.5732
364.9410, 644.2764
366.1410, 826.8594
367.3410, 676.3779
368.5410, 537.7920
369.7410, 489.0664
370.9400, 340.8584
372.1400, 234.7871
373.3390, 161.8584
374.5380, 29.37695
375.7370, 26.10254
376.9360, 8.981445
378.1350, 512.1582
379.3330, 843.8672
380.5310, 1571.388
381.7300, 2282.689
382.9280, 3397.557
384.1260, 4847.121
385.3230, 6266.244
386.5210, 7403.049
387.7180, 8426.939
388.9160, 9216.648
390.1130, 9834.881
391.3100, 10026.19
392.5060, 9983.717
393.7030, 9538.455
394.9000, 8899.344
396.0960, 7749.416
397.2920, 6886.654
398.4880, 5945.059
399.6840, 5155.625
400.8800, 4213.350
402.0750, 3468.236
403.2710, 2800.277
404.4660, 2273.477
405.6610, 1859.830
406.8560, 1961.337
408.0510, 1814.995
409.2450, 2244.805
410.4400, 2887.765
411.6340, 3684.874
412.8280, 4861.131
414.0220, 6252.533
415.2160, 7467.082
416.4100, 7971.775
417.6030, 8272.608
418.7970, 8391.588
419.9900, 8547.705
421.1830, 8737.960
422.3760, 9332.354
423.5690, 10000.88
424.7610, 11287.55
425.9540, 12253.34
427.1460, 13108.27
428.3380, 13642.33
429.5300, 13773.52
430.7220, 13254.83
431.9140, 12113.27
433.1050, 11010.83
434.2970, 9004.515
435.4880, 7347.321
436.6790, 5953.246
437.8700, 5096.290
439.0610, 4545.448
440.2510, 4272.723
441.4420, 4364.111
442.6320, 4227.609
443.8220, 4120.221
445.0120, 3714.941
446.2020, 3021.768
447.3910, 2657.701
448.5810, 1797.740
449.7700, 1359.885
450.9600, 1024.128
452.1490, 902.4736
453.3370, 814.9180
454.5260, 915.4600
455.7150, 900.0986
456.9030, 848.8330
458.0910, 687.6602
459.2800, 584.5811
460.4670, 455.5918
461.6550, 346.6924
462.8430, 463.8828
464.0300, 454.4082
465.2180, 420.5205
466.4050, 644.9668
467.5920, 807.4961
468.7790, 916.3076
469.9650, 1168.800
471.1520, 997.5693
472.3380, 851.4180
473.5250, 694.3428
474.7110, 730.3438
475.8970, 753.4170
477.0820, 846.5645
478.2680, 1294.782
479.4540, 1742.071
480.6390, 2259.429
481.8240, 3024.854
483.0090, 3504.345
484.1940, 3820.900
485.3780, 3617.521
486.5630, 3168.203
487.7470, 2301.307
488.9320, 1670.330
490.1160, 1063.330
491.3000, 573.4736
492.4830, 238.8076
493.6670, 8.210938
494.8500, 24.84082
496.0340, 122.0225
497.2170, 331.8682
498.4000, 550.7529
499.5820, 748.6797
500.7650, 1274.647
501.9480, 1492.656
503.1300, 1896.703
504.3120, 2110.205
505.4940, 2272.762
506.6760, 2097.100
507.8580, 2147.917
509.0390, 1972.393
510.2210, 1882.007
511.4020, 1646.039
512.5830, 1393.860
513.7640, 907.2822
514.9450, 743.0352
516.1250, 487.4180
517.3060, 46.66504
518.4860, 108.0596
519.6660, 435.6104
520.8460, 350.2871
522.0260, 577.1475
523.2060, 701.3350
524.3850, 753.8936
525.5650, 774.8516
526.7440, 674.2070
527.9230, 797.9629
529.1020, 758.2188
530.2810, 406.9326
531.4590, 545.9492
532.6380, 418.3486
533.8160, 81.07812
534.9940, 120.0215
536.1720, 337.0420
537.3500, 879.0449
538.5270, 1252.057
539.7050, 1858.076
540.8820, 2617.105
542.0590, 2902.141
543.2360, 3485.213
544.4130, 3749.305
545.5900, 3909.452
546.7660, 3926.682
547.9430, 3814.000
549.1190, 3628.423
550.2950, 3177.941
551.4710, 3067.555
552.6470, 3055.262
553.8220, 3104.053
554.9980, 3295.912
556.1730, 3438.841
557.3480, 3976.829
558.5230, 4332.887
559.6980, 4367.986
560.8730, 4201.115
562.0470, 4032.250
563.2220, 3760.382
564.3960, 3674.509
565.5700, 3500.624
566.7440, 3531.725
567.9170, 3434.807
569.0910, 3581.872
570.2640, 3590.917
571.4380, 3824.941
572.6110, 3870.944
573.7840, 4187.927
574.9570, 3891.886
576.1290, 3818.821
577.3020, 4024.732
578.4740, 3977.618
579.6460, 3756.476
580.8180, 4177.309
581.9900, 4384.111
583.1620, 4912.887
584.3330, 5350.633
585.5040, 5872.347
586.6760, 6142.030
587.8470, 6288.682
589.0180, 5841.301
590.1880, 5296.886
591.3590, 4654.438
592.5290, 4010.953
593.7000, 3287.432
594.8700, 2482.875
596.0400, 2136.281
597.2090, 1627.647
598.3790, 1244.976
599.5490, 1189.265
600.7180, 1191.513
601.8870, 1234.720
603.0560, 1383.715
604.2250, 1533.008
605.3940, 1813.087
606.5620, 2088.122
607.7300, 2363.113
608.8990, 2658.061
610.0670, 2835.960
611.2350, 3066.812
612.4020, 3183.619
613.5700, 3143.377
614.7370, 3329.088
615.9050, 3216.747
617.0720, 3276.359
618.2390, 3388.920
619.4060, 3398.430
620.5720, 3077.888
621.7390, 2634.294
622.9050, 2221.646
624.0710, 2018.947
625.2370, 1479.194
626.4030, 1200.386
627.5690, 721.5225
628.7340, 583.5986
629.9000, 496.5947
631.0650, 494.4941
632.2300, 412.2939
633.3950, 601.3506
634.5600, 479.3906
635.7240, 778.2236
636.8890, 893.6289
638.0530, 987.7295
639.2170, 1110.060
640.3810, 1316.332
641.5450, 1422.546
642.7080, 1471.701
643.8720, 1560.798
645.0350, 1412.840
646.1980, 1427.857
647.3610, 1182.885
648.5240, 1146.917
649.6870, 943.9834
650.8490, 858.6582
652.0120, 733.6221
653.1740, 759.3047
654.3360, 678.0322
655.4980, 920.0137
656.6600, 971.6172
657.8210, 1373.792
658.9830, 1509.882
660.1440, 1751.848
661.3050, 2024.881
662.4660, 2216.844
663.6270, 2686.094
664.7870, 2849.566
665.9480, 3318.646
667.1080, 3533.031
668.2680, 3859.965
669.4280, 4599.312
670.5880, 5232.209
671.7480, 6011.540
672.9070, 7021.039
674.0670, 8308.927
675.2260, 9321.913
676.3850, 9805.884
677.5440, 10081.29
678.7030, 9691.366
679.8610, 9029.207
681.0200, 7954.658
682.1780, 6816.711
683.3360, 5646.519
684.4940, 4771.285
685.6520, 4119.805
686.8090, 3402.818
687.9670, 3023.215
689.1240, 2691.853
690.2810, 2513.825
691.4380, 2672.922
692.5950, 2726.535
693.7520, 2877.162
694.9080, 2992.453
696.0650, 3808.407
697.2210, 4242.670
698.3770, 5019.207
699.5330, 6063.983
700.6880, 7064.705
701.8440, 8632.564
702.9990, 10669.18
704.1550, 13064.60
705.3100, 15741.27
706.4650, 19487.82
707.6190, 23292.31
708.7740, 27906.74
709.9290, 32612.10
711.0830, 37381.41
712.2370, 40706.64
713.3910, 42785.81
714.5450, 43493.93
715.6980, 41597.96
716.8520, 38310.95
718.0050, 33890.86
719.1580, 29255.72
720.3110, 24234.51
721.4640, 20187.24
722.6170, 16478.90
723.7700, 13493.51
724.9220, 11032.05
726.0740, 9015.527
727.2260, 7573.940
728.3780, 6297.293
729.5300, 5233.580
730.6810, 4483.807
731.8330, 3699.971
732.9840, 3106.072
734.1350, 2836.111
735.2860, 2565.088
736.4370, 2235.002
737.5880, 2065.856
738.7380, 2754.647
739.8880, 1693.377
741.0390, 1945.045
742.1890, 1184.652
743.3380, 1376.199
744.4880, 964.6836
745.6380, 1076.108
746.7870, 936.4727
747.9360, 1128.777
749.0850, 1050.021
750.2340, 1122.205
751.3830, 1327.330
752.5310, 1224.395
753.6800, 1525.400
754.8280, 1770.347
755.9760, 2039.234
757.1240, 2374.062
758.2720, 2707.834
759.4190, 3182.547
760.5670, 3667.203
761.7140, 4295.802
762.8610, 4819.342
764.0080, 5249.827
765.1550, 5852.255
766.3020, 6134.269
767.4480, 5935.365
768.5950, 5900.490
769.7410, 5549.471
770.8870, 4921.264
772.0330, 4720.397
773.1780, 3971.084
774.3240, 3565.211
775.4690, 3049.320
776.6140, 2589.384
777.7590, 2120.396
778.9040, 1763.359
780.0490, 1557.274
781.1940, 1143.140
782.3380, 1023.958
783.4820, 902.7266
784.6260, 632.4473
785.7700, 462.1211
786.9140, 462.7471
788.0580, 113.3242
789.2010, 145.8291
790.3450, 34.03125
791.4880, 4.746094
792.6310, 123.3623
793.7730, 104.3115
794.9160, 157.4268
796.0590, 126.6836
797.2010, 124.3682
798.3430, 214.3799
799.4850, 92.79980
800.6270, 189.1699
801.7690, 185.5059
802.9100, 253.7900
804.0520, 60.05078
805.1930, 105.7920
806.3340, 23.16406
807.4750, 24.02734
808.6160, 73.30566
809.7560, 289.7246
810.8970, 389.2725
812.0370, 470.8691
813.1770, 391.4717
814.3170, 199.0469
815.4570, 261.5781
816.5960, 138.0674
817.7360, 169.5088
818.8750, 42.09570
820.0140, 11.19922
821.1530, 137.5801
822.2920, 231.5088
823.4310, 273.6357
824.5690, 329.9805
825.7070, 304.5732
826.8460, 312.6182
827.9840, 301.4580
829.1220, 280.7471
830.2590, 220.2510
831.3970, 233.9375
832.5340, 199.8926
833.6710, 255.8545
834.8080, 136.0928
835.9450, 111.4629
837.0820, 12.94727
838.2190, 10.50293
839.3550, 14.90137
840.4910, 95.24805
841.6270, 216.5596
842.7630, 318.8408
843.8990, 364.0947
845.0350, 244.3213
846.1700, 362.5225
847.3060, 591.6963
848.4410, 453.8457
849.5760, 608.9707
850.7100, 541.0703
851.8450, 722.1465
852.9800, 783.1992
854.1140, 662.2295
855.2480, 668.2373
856.3820, 743.1934
857.5160, 854.1885
858.6500, 889.1338
859.7830, 940.0586
860.9170, 953.9639
862.0500, 1055.849
863.1830, 1140.717
864.3160, 1314.566
865.4480, 1287.400
866.5810, 1283.216
867.7130, 1285.016
868.8460, 1542.802
869.9780, 1507.573
871.1100, 1512.330
872.2410, 1602.073
873.3730, 1476.801
874.5050, 1586.518
875.6360, 1449.221
876.7670, 1773.914
877.8980, 1554.594
879.0290, 1775.264
880.1590, 1818.924
881.2900, 1694.576
882.4200, 1887.220
883.5500, 1850.854
884.6800, 2025.479
885.8100, 2091.104
886.9400, 2184.841
888.0690, 2339.700
889.1990, 2539.934
890.3280, 2804.529
891.4570, 3269.130
892.5860, 3693.146
893.7140, 4141.324
894.8430, 4826.931
895.9710, 5463.539
897.1000, 6155.154
898.2280, 6802.782
899.3560, 7450.416
900.4830, 8187.062
901.6110, 8406.731
902.7380, 8730.422
903.8660, 8853.126
904.9930, 8563.860
906.1200, 8096.643
907.2460, 7508.499
908.3730, 7068.414
909.5000, 6341.402
910.6260, 5767.451
911.7520, 5459.536
912.8780, 4819.629
914.0040, 4458.723
915.1290, 4018.833
916.2550, 3806.996
917.3800, 3284.193
918.5050, 3028.394
919.6300, 2864.600
920.7550, 2891.812
921.8800, 2945.035
923.0040, 2792.277
924.1290, 2638.947
925.2530, 2497.348
926.3770, 2705.053
927.5010, 2719.697
928.6250, 2792.072
929.7480, 2780.787
930.8720, 2831.314
931.9950, 2804.943
933.1180, 2885.870
934.2410, 2947.311
935.3640, 2814.535
936.4860, 2973.880
937.6090, 2938.608
938.7310, 3080.201
939.8530, 3387.104
940.9750, 3630.934
942.0970, 3924.440
943.2180, 4126.770
944.3400, 4728.298
945.4610, 4959.919
946.5820, 5518.707
947.7030, 6384.524
948.8240, 7054.369
949.9450, 7633.738
951.0650, 8625.447
952.1860, 9524.389
953.3060, 10520.70
954.4260, 11565.38
955.5460, 13079.30
956.6650, 14636.23
957.7850, 16343.38
958.9040, 18572.03
960.0230, 20715.28
961.1420, 22950.25
962.2610, 24597.87
963.3800, 25757.34
964.4990, 26284.26
965.6170, 25648.16
966.7350, 24876.36
967.8530, 23778.92
968.9710, 22569.14
970.0890, 21449.07
971.2070, 20801.72
972.3240, 20556.41
973.4410, 20850.94
974.5580, 21402.68
975.6750, 22187.59
976.7920, 22932.25
977.9090, 23550.00
979.0250, 23703.78
980.1410, 23594.65
981.2580, 22682.55
982.3740, 21919.50
983.4890, 20696.49
984.6050, 19458.51
985.7200, 18861.58
986.8360, 17689.69
987.9510, 17220.85
989.0660, 16558.05
990.1810, 16161.29
991.2950, 16022.57
992.4100, 15642.91
993.5240, 15786.29
994.6390, 15962.72
995.7530, 16226.20
996.8660, 16578.75
997.9800, 16789.35
999.0940, 17190.99
1000.207, 17532.68
1001.320, 17623.40
1002.433, 17515.44
1003.546, 17268.28
1004.659, 16981.14
1005.772, 15894.05
1006.884, 15076.00
1007.996, 13628.00
1009.108, 12307.03
1010.220, 10863.11
1011.332, 9823.226
1012.444, 8706.489
1013.555, 7603.693
1014.666, 6658.377
1015.777, 5944.671
1016.888, 5445.006
1017.999, 4930.385
1019.110, 4553.243
1020.220, 4296.285
1021.331, 4078.787
1022.441, 3924.330
1023.551, 3954.913
1024.661, 4076.914
1025.770, 4094.036
1026.880, 4163.836
1027.989, 4301.739
1029.098, 4012.525
1030.207, 3798.311
1031.316, 3451.170
1032.425, 3569.672
1033.533, 3584.252
1034.642, 3384.662
1035.750, 3353.113
1036.858, 3418.714
1037.966, 3551.210
1039.073, 3653.193
1040.181, 3846.032
1041.288, 4072.525
1042.396, 4151.010
1043.503, 4282.425
1044.610, 4222.691
1045.716, 4560.550
1046.823, 4623.949
1047.929, 5128.695
1049.036, 5244.166
1050.142, 5922.123
1051.248, 6326.777
1052.353, 6571.338
1053.459, 7030.148
1054.564, 7443.400
1055.670, 7492.663
1056.775, 7890.537
1057.880, 7738.024
1058.985, 7598.188
1060.089, 7159.064
1061.194, 6760.008
1062.298, 6025.408
1063.402, 5502.727
1064.506, 4847.438
1065.610, 4255.078
1066.713, 3981.646
1067.817, 3519.486
1068.920, 3373.301
1070.023, 3228.154
1071.126, 3208.781
1072.229, 3268.080
1073.332, 3666.117
1074.435, 3888.632
1075.537, 4314.931
1076.639, 4960.795
1077.741, 5256.355
1078.843, 6259.718
1079.945, 6983.197
1081.046, 7638.877
1082.148, 7953.285
1083.249, 8047.358
1084.350, 7653.803
1085.451, 7458.279
1086.551, 6816.268
1087.652, 6354.061
1088.752, 5292.091
1089.853, 4667.294
1090.953, 3869.641
1092.053, 3422.904
1093.152, 3276.174
1094.252, 2809.514
1095.351, 2513.749
1096.451, 2308.594
1097.550, 2405.475
1098.649, 2191.522
1099.748, 2314.338
1100.846, 2095.119
1101.945, 2204.775
1103.043, 1977.869
1104.141, 1918.333
1105.239, 1819.174
1106.337, 1711.214
1107.434, 1616.849
1108.532, 1603.453
1109.629, 1432.637
1110.726, 1442.837
1111.823, 1436.245
1112.920, 1138.365
1114.017, 819.3926
1115.113, 959.6357
1116.210, 925.8340
1117.306, 787.2344
1118.402, 766.3867
1119.498, 724.8184
1120.593, 973.3428
1121.689, 747.7363
1122.784, 818.3203
1123.879, 589.2637
1124.974, 565.0166
1126.069, 807.3740
1127.164, 378.0869
1128.259, 401.5527
1129.353, 260.3018
1130.447, 77.81250
1131.541, 261.4980
1132.635, 158.4033
1133.729, 22.44531
1134.822, 7.002930
1135.916, 124.5938
1137.009, 255.9482
1138.102, 175.8398
1139.195, 5.725586
1140.288, 126.3545
1141.380, 51.68359
1142.473, 179.6416
1143.565, 5.041016
1144.657, 47.88965
1145.749, 28.91602
1146.841, 75.50195
1147.932, 27.51660
1149.024, 39.73730
1150.115, 51.54785
1151.206, 37.56348
1152.297, 91.66699
1153.388, 70.45508
1154.479, 67.31348
1155.569, 56.97754
1156.659, 23.91113
1157.750, 45.48730
1158.839, 71.13965
1159.929, 39.47168
1161.019, 62.82812
1162.108, 84.20996
1163.198, 50.63672
1164.287, 72.60449
1165.376, 121.0059
1166.465, 84.57031
1167.553, 15.03516
1168.642, 37.21680
1169.730, 117.8691
1170.818, 176.2656
1171.906, 183.8066
1172.994, 196.6250
1174.082, 224.6543
1175.170, 139.8623
1176.257, 3.162109
1177.344, 75.51074
1178.431, 41.83496
1179.518, 180.2256
1180.605, 105.7041
1181.691, 45.00098
1182.778, 84.73145
1183.864, 32.51855
1184.950, 3.375977
1186.036, 33.85840
1187.122, 57.12891
1188.207, 64.21094
1189.292, 88.30469
1190.378, 33.11621
1191.463, 63.12891
1192.548, 21.78516
1193.632, 64.66602
1194.717, 49.25488
1195.801, 42.52539
1196.886, 8.536133
1197.970, 52.40430
1199.054, 37.52246
1200.137, 14.06934
1201.221, 23.71582
1202.305, 2.781250
1203.388, 138.6670
1204.471, 32.92188
1205.554, 90.58594
1206.637, 15.09570
1207.719, 69.47168
1208.802, 126.8848
1209.884, 5.016602
1210.966, 10.01562
1212.048, 16.98633
1213.130, 88.09766
1214.212, 44.29785
1215.293, 44.41016
1216.374, 67.06738
1217.456, 21.68066
1218.536, 79.23242
1219.617, 70.70996
1220.698, 12.61816
1221.778, 94.76270
1222.859, 113.1006
1223.939, 127.2627
1225.019, 183.6582
1226.099, 93.87109
1227.178, 57.49707
1228.258, 57.60156
1229.337, 58.35352
1230.417, 185.5732
1231.496, 241.4541
1232.574, 155.4873
1233.653, 111.2705
1234.732, 242.0000
1235.810, 217.6816
1236.888, 246.3145
1237.966, 31.89844
1239.044, 189.4014
1240.122, 190.8525
1241.199, 46.74707
1242.277, 98.52832
1243.354, 246.7471
1244.431, 199.9170
1245.508, 215.0410
1246.585, 171.1494
1247.661, 109.2070
1248.738, 101.2041
1249.814, 165.1348
1250.890, 189.1318
1251.966, 164.1133
1253.042, 65.87891
1254.117, 149.5693
1255.193, 84.20312
1256.268, 159.7637
1257.343, 2.270508
1258.418, 54.67090
1259.493, 190.9854
1260.567, 172.2520
1261.642, 389.4590
1262.716, 277.9551
1263.790, 93.45898
1264.864, 190.4766
1265.938, 233.6260
1267.011, 389.8135
1268.085, 488.7012
1269.158, 192.5137
1270.231, 244.5225
1271.304, 334.4287
1272.377, 107.7402
1273.450, 342.2363
1274.522, 279.8994
1275.594, 225.2598
1276.666, 321.7207
1277.738, 299.4404
1278.810, 377.2686
1279.882, 295.5010
1280.953, 296.9287
1282.025, 469.4023
1283.096, 368.8828
1284.167, 417.0215
1285.238, 298.8320
1286.308, 147.3008
1287.379, 229.3477
1288.449, 444.0322
1289.519, 380.0029
1290.589, 838.7197
1291.659, 402.3760
1292.729, 375.3613
1293.798, 238.5215
1294.868, 440.5654
1295.937, 335.5527
1297.006, 263.3730
1298.075, 368.2764
1299.143, 285.6768
1300.212, 288.2012
1301.280, 320.0479
1302.348, 332.9395
1303.416, 345.9131
1304.484, 360.5996
1305.552, 370.6533
1306.620, 375.4678
1307.687, 359.0820
1308.754, 312.0000
1309.821, 244.4043
1310.888, 234.0244
1311.955, 215.7979
1313.021, 193.8994
1314.088, 208.7393
1315.154, 204.5449
1316.220, 193.7139
1317.286, 331.3916
1318.352, 271.3438
1319.417, 401.4863
1320.483, 339.5713
1321.548, 352.2383
1322.613, 248.0195
1323.678, 327.5059
1324.743, 295.0645
1325.807, 199.7393
1326.872, 201.2109
1327.936, 458.7432
1329.000, 272.2930
1330.064, 354.1250
1331.128, 347.4238
1332.191, 317.9463
1333.255, 339.9814
1334.318, 177.2461
1335.381, 236.9482
1336.444, 218.9414
1337.507, 451.1416
1338.569, 328.5342
1339.632, 432.4229
1340.694, 384.0000
1341.756, 358.3848
1342.818, 366.3789
1343.880, 455.3271
1344.941, 420.7471
1346.003, 380.3721
1347.064, 520.9727
1348.125, 224.3086
1349.186, 428.9502
1350.247, 325.9268
1351.308, 408.5498
1352.368, 413.9492
1353.428, 534.9521
1354.489, 155.0840
1355.549, 383.1670
1356.608, 308.3877
1357.668, 262.9277
1358.727, 391.2686
1359.787, 207.7822
1360.846, 364.8828
1361.905, 349.1797
1362.964, 461.5361
1364.022, 446.8086
1365.081, 522.0801
1366.139, 501.2178
1367.197, 426.8262
1368.255, 402.9121
1369.313, 349.6650
1370.371, 339.6445
1371.428, 338.7471
1372.486, 326.3496
1373.543, 362.5723
1374.600, 320.4805
1375.657, 310.2109
1376.713, 303.6328
1377.770, 221.1328
1378.826, 211.5361
1379.882, 353.2451
1380.938, 257.6777
1381.994, 309.0010
1383.050, 379.3750
1384.106, 276.8164
1385.161, 298.6055
1386.216, 296.1250
1387.271, 258.2471
1388.326, 282.2910
1389.381, 339.2070
1390.435, 288.8906
1391.490, 288.8906
1392.544, 197.1533
1393.598, 174.1914
1394.652, 301.7324
1395.705, 245.3252
1396.759, 178.9893
1397.812, 188.9209
1398.866, 92.19043
1399.919, 279.2793
1400.972, 200.5332
1402.024, 155.7617
1403.077, 220.3945
1404.129, 144.3906
1405.181, 104.2617
1406.233, 254.3750
1407.285, 172.5762
1408.337, 147.3359
1409.389, 133.2246
1410.440, 201.1953
1411.491, 175.1289
1412.542, 332.4785
1413.593, 155.5332
1414.644, 211.6113
1415.695, 141.4199
1416.745, 6.056641
1417.795, 215.6562
1418.845, 297.2031
1419.895, 152.6660
1420.945, 265.3164
1421.995, 292.6621
1423.044, 420.8281
1424.093, 320.6484
1425.142, 274.8652
1426.191, 294.7266
1427.240, 235.6250
1428.289, 197.6738
1429.337, 187.7871
1430.385, 240.9512
1431.433, 138.0996
1432.481, 215.1914
1433.529, 172.2285
1434.577, 159.2227
1435.624, 160.1504
1436.672, 174.7910
1437.719, 270.3301
1438.766, 272.7363
1439.812, 374.7910
1440.859, 357.0605
1441.905, 200.4727
1442.952, 164.6328
1443.998, 172.6973
1445.044, 449.6465
1446.090, 220.0586
1447.135, 273.3730
1448.181, 284.5918
1449.226, 181.5566
1450.271, 322.2871
1451.316, 262.0586
1452.361, 233.0527
1453.405, 245.1660
1454.450, 332.8398
1455.494, 307.4883
1456.538, 172.6113
1457.582, 317.7441
1458.626, 398.9551
1459.670, 198.1719
1460.713, 266.3789
1461.757, 241.3789
1462.800, 178.5527
1463.843, 99.68164
1464.886, 167.2578
1465.928, 69.39062
1466.971, 206.2969
1468.013, 212.4082
1469.055, 239.4922
1470.097, 234.7676
1471.139, 215.5547
1472.181, 130.7695
1473.222, 160.8691
1474.263, 71.84375
1475.305, 49.81250
1476.346, 12.59180
1477.386, 330.3594
1478.427, 79.32031
1479.468, 159.3027
1480.508, 236.3359
1481.548, 118.3496
1482.588, 110.3320
1483.628, 175.7148
1484.668, 191.6348
1485.707, 182.9434
1486.747, 60.91406
1487.786, 235.1719
1488.825, 160.4785
1489.864, 261.5723
1490.902, 260.3574
1491.941, 109.6543
1492.979, 202.1484
1494.017, 151.4844
1495.055, 31.78711
1496.093, 38.55664
1497.131, 2.087891
1498.168, 112.2910
1499.206, 1.525391
1500.243, 294.3613
1501.280, 189.9805
1502.317, 125.3418
1503.354, 189.9766
1504.390, 62.20703
1505.426, 48.91797
1506.463, 84.87305
1507.499, 160.8711
1508.535, 0.4667970
1509.570, 141.5508
1510.606, 105.6914
1511.641, 6.234375
1512.676, 127.9277
1513.711, 99.08984
1514.746, 11.86914
1515.781, 253.2949
1516.816, 12.55078
1517.850, 225.5430
1518.884, 6.294922
1519.918, 136.6289
1520.952, 190.7344
1521.986, 278.8320
1523.019, 237.1680
1524.053, 122.3223
1525.086, 157.4785
1526.119, 92.00195
1527.152, 187.1406
1528.185, 265.1133
1529.217, 278.9004
1530.250, 191.0820
1531.282, 81.66602
1532.314, 256.6172
1533.346, 39.09961
1534.377, 346.9512
1535.409, 358.8926
1536.440, 162.8105
1537.472, 199.6621
1538.503, 258.1934
1539.534, 113.7012
1540.564, 192.7031
1541.595, 251.7695
1542.625, 239.2715
1543.656, 273.2539
1544.686, 2.957031
1545.716, 254.7715
1546.745, 183.8203
1547.775, 134.1543
1548.804, 338.7461
1549.834, 287.5586
1550.863, 223.5840
1551.892, 348.4434
1552.920, 369.4512
1553.949, 598.9316
1554.977, 484.8398
1556.006, 481.2129
1557.034, 93.11523
1558.062, 74.20117
1559.089, 129.2832
1560.117, 269.5605
1561.144, 109.5039
1562.172, 160.1992
1563.199, 7.591797
1564.226, 127.5078
1565.252, 9.621094
1566.279, 191.9121
1567.305, 188.6328
1568.332, 189.8965
1569.358, 174.5469
1570.384, 17.53516
1571.409, 0.0000000E+00
##END=



