##NAMES=Axinite-(Fe)
##RRUFFID=R060183
##IDEAL CHEMISTRY=Ca_4_Fe^2+^_2_Al_4_[B_2_Si_8_O_30_](OH)_2_
##LOCALITY=Skagit Bluffs, near Manning Park, British Columbia, Canada
##OWNER=RRUFF
##SOURCE=Lloyd Twaites
##DESCRIPTION=Light-pink transparent axe-head-shaped single crystal
##STATUS=The identification of this mineral has been confirmed by X-ray diffraction and chemical analysis
##URL=rruff.info/R060183
##MEASURED CHEMISTRY=Ca_2.00_(Fe^2+^_0.58_Mn_0.23_Mg_0.19_)Al_2.00_B_1.00_Si_4.00_O_15_(OH)
##PIN_ID=L01002
##ORIENTATION=Laser parallel to (-1 0 -1). Fiducial mark perpendicular to laser is parallel to b [0 1 0]
52.67100, 0.0000000E+00
53.91000, 49.02283
55.14900, 96.37183
56.38700, 112.4456
57.62600, 1186.523
58.86400, 215.0738
60.10300, 284.7690
61.34100, 276.0648
62.57900, 231.0853
63.81700, 191.5021
65.05400, 80.14917
66.29200, 52.96497
67.52900, 1.921631
68.76700, 9.777283
70.00400, 28.87415
71.24100, 32.07532
72.47700, 30.74091
73.71400, 19.01331
74.95100, 3.442871
76.18700, 3.127319
77.42300, 47.15662
78.65900, 65.61267
79.89500, 3.568970
81.13100, 70.90894
82.36700, 202.7617
83.60200, 350.1034
84.83700, 520.6577
86.07200, 773.0630
87.30800, 974.9313
88.54200, 1314.952
89.77700, 1669.091
91.01200, 2161.286
92.24600, 2899.461
93.48000, 3441.544
94.71400, 3862.469
95.94800, 4067.216
97.18200, 3986.780
98.41600, 3706.129
99.64900, 3534.238
100.8830, 3375.083
102.1160, 3113.642
103.3490, 3014.900
104.5820, 2975.844
105.8150, 3023.458
107.0470, 3316.731
108.2800, 3238.494
109.5120, 3080.206
110.7440, 3211.393
111.9760, 2617.195
113.2080, 2383.604
114.4400, 2324.614
115.6710, 2485.214
116.9030, 2514.398
118.1340, 2448.158
119.3650, 2420.485
120.5960, 2481.375
121.8270, 2579.818
123.0580, 2920.807
124.2880, 3096.336
125.5190, 3427.400
126.7490, 3573.906
127.9790, 3609.595
129.2090, 3567.441
130.4390, 3430.427
131.6680, 3242.536
132.8980, 3045.759
134.1270, 3035.064
135.3560, 2908.463
136.5850, 3019.101
137.8140, 3106.244
139.0430, 3319.035
140.2710, 3702.275
141.5000, 3745.842
142.7280, 4299.658
143.9560, 4740.738
145.1840, 5628.100
146.4120, 6646.757
147.6390, 8007.723
148.8670, 9457.008
150.0940, 10359.62
151.3210, 10256.55
152.5490, 9141.814
153.7750, 7801.406
155.0020, 6965.327
156.2290, 6283.577
157.4550, 5779.153
158.6810, 5299.059
159.9080, 4881.292
161.1340, 4564.849
162.3590, 4370.732
163.5850, 4871.938
164.8110, 5206.465
166.0360, 5874.314
167.2610, 7051.480
168.4860, 8079.963
169.7110, 9375.764
170.9360, 10339.88
172.1610, 10631.30
173.3850, 10382.04
174.6100, 9559.089
175.8340, 8740.439
177.0580, 7742.097
178.2820, 6847.063
179.5050, 5568.327
180.7290, 4549.891
181.9520, 3572.754
183.1760, 2795.911
184.3990, 2143.363
185.6220, 1702.106
186.8450, 1330.138
188.0670, 1120.458
189.2900, 1123.063
190.5120, 1023.951
191.7340, 1263.120
192.9560, 1401.566
194.1780, 1461.290
195.4000, 1572.287
196.6220, 1552.556
197.8430, 1691.094
199.0640, 1817.899
200.2860, 2354.189
201.5070, 2844.283
202.7270, 3570.166
203.9480, 4316.764
205.1690, 4926.274
206.3890, 5821.606
207.6090, 6496.718
208.8290, 7148.606
210.0490, 7615.475
211.2690, 7952.851
212.4890, 8237.697
213.7080, 8294.881
214.9280, 8376.369
216.1470, 8326.045
217.3660, 8235.226
218.5850, 7841.956
219.8030, 7194.917
221.0220, 6109.215
222.2400, 4785.301
223.4590, 3928.481
224.6770, 2906.717
225.8950, 2303.342
227.1120, 1647.969
228.3300, 1304.185
229.5480, 951.7490
230.7650, 798.5527
231.9820, 723.8203
233.1990, 786.5698
234.4160, 793.7900
235.6330, 952.4854
236.8490, 1118.647
238.0660, 1293.267
239.2820, 1558.311
240.4980, 1891.776
241.7140, 2224.621
242.9300, 2746.840
244.1460, 3209.414
245.3610, 3473.292
246.5770, 3855.434
247.7920, 4135.812
249.0070, 4572.425
250.2220, 4919.271
251.4370, 5407.343
252.6510, 5517.642
253.8660, 5709.166
255.0800, 5743.912
256.2940, 5693.876
257.5080, 5623.062
258.7220, 6105.460
259.9360, 6359.077
261.1490, 6154.901
262.3630, 6164.931
263.5760, 6353.164
264.7890, 6382.599
266.0020, 6480.230
267.2150, 6369.061
268.4270, 5987.083
269.6400, 6043.300
270.8520, 5759.705
272.0640, 5512.296
273.2760, 5310.074
274.4880, 4973.038
275.7000, 4499.186
276.9120, 4242.517
278.1230, 3965.034
279.3340, 3830.733
280.5450, 3805.618
281.7560, 3668.686
282.9670, 3532.937
284.1780, 3471.367
285.3880, 3251.978
286.5980, 3146.764
287.8090, 2774.724
289.0190, 2461.858
290.2290, 2324.166
291.4380, 2094.646
292.6480, 2018.297
293.8570, 1904.116
295.0670, 2155.104
296.2760, 2493.260
297.4850, 2780.582
298.6930, 3117.067
299.9020, 3754.716
301.1110, 4596.526
302.3190, 5370.498
303.5270, 6444.629
304.7350, 7358.917
305.9430, 7758.365
307.1510, 7828.965
308.3580, 7250.719
309.5660, 6548.627
310.7730, 5995.686
311.9800, 5549.894
313.1870, 5402.251
314.3940, 5580.756
315.6010, 6167.408
316.8070, 6523.204
318.0130, 7006.145
319.2200, 7206.225
320.4260, 7047.447
321.6310, 6578.809
322.8370, 5990.311
324.0430, 5666.948
325.2480, 5281.722
326.4540, 5329.630
327.6590, 5223.671
328.8640, 5128.845
330.0680, 5164.150
331.2730, 5232.583
332.4780, 5266.145
333.6820, 5572.834
334.8860, 5845.648
336.0900, 6534.588
337.2940, 7264.651
338.4980, 8400.839
339.7010, 9456.144
340.9050, 10536.57
342.1080, 11286.11
343.3110, 11914.78
344.5140, 11751.55
345.7170, 11232.49
346.9200, 10747.58
348.1220, 10361.83
349.3240, 9717.248
350.5270, 8797.820
351.7290, 7694.554
352.9310, 6241.451
354.1320, 4677.510
355.3340, 3419.734
356.5350, 2246.119
357.7370, 1446.671
358.9380, 948.3892
360.1390, 419.2773
361.3400, 51.32959
362.5400, 114.4565
363.7410, 377.1025
364.9410, 420.6680
366.1410, 511.1709
367.3410, 611.0615
368.5410, 510.3057
369.7410, 328.6792
370.9400, 310.2988
372.1400, 149.5454
373.3390, 6.129883
374.5380, 209.7783
375.7370, 416.2476
376.9360, 803.3545
378.1350, 1114.135
379.3330, 1718.232
380.5310, 2293.635
381.7300, 2985.034
382.9280, 4031.470
384.1260, 4931.475
385.3230, 6134.291
386.5210, 7159.269
387.7180, 8311.489
388.9160, 9169.161
390.1130, 9820.516
391.3100, 9911.058
392.5060, 9729.696
393.7030, 8594.427
394.9000, 7416.250
396.0960, 5937.167
397.2920, 4598.174
398.4880, 3834.376
399.6840, 3042.562
400.8800, 2417.364
402.0750, 2061.723
403.2710, 1777.116
404.4660, 1601.642
405.6610, 1533.252
406.8560, 1505.943
408.0510, 1755.715
409.2450, 2056.566
410.4400, 2521.495
411.6340, 3157.501
412.8280, 3911.584
414.0220, 4884.743
415.2160, 5933.975
416.4100, 7308.279
417.6030, 8785.656
418.7970, 10255.10
419.9900, 11518.62
421.1830, 12732.21
422.3760, 13592.87
423.5690, 13880.59
424.7610, 13846.38
425.9540, 13602.23
427.1460, 12605.15
428.3380, 11683.13
429.5300, 10227.17
430.7220, 8918.279
431.9140, 7236.442
433.1050, 6218.666
434.2970, 4944.948
435.4880, 4102.286
436.6790, 3318.681
437.8700, 2825.130
439.0610, 2435.634
440.2510, 2131.191
441.4420, 2084.800
442.6320, 2076.460
443.8220, 2018.171
445.0120, 1911.931
446.2020, 1847.739
447.3910, 1858.595
448.5810, 1662.497
449.7700, 1584.445
450.9600, 1604.438
452.1490, 1791.474
453.3370, 1835.553
454.5260, 1963.673
455.7150, 1963.835
456.9030, 1832.036
458.0910, 1614.277
459.2800, 1489.556
460.4670, 1366.873
461.6550, 1241.225
462.8430, 1208.613
464.0300, 1288.036
465.2180, 1334.492
466.4050, 1651.982
467.5920, 1828.503
468.7790, 2225.056
469.9650, 2610.638
471.1520, 2952.250
472.3380, 3696.891
473.5250, 4340.560
474.7110, 5506.254
475.8970, 7076.976
477.0820, 8843.723
478.2680, 11384.49
479.4540, 14064.29
480.6390, 17369.10
481.8240, 20892.94
483.0090, 24461.80
484.1940, 25542.68
485.3780, 24566.59
486.5630, 21202.50
487.7470, 17040.43
488.9320, 13391.39
490.1160, 10163.35
491.3000, 7845.336
492.4830, 6161.332
493.6670, 4853.341
494.8500, 3926.364
496.0340, 3341.396
497.2170, 2728.437
498.4000, 2311.487
499.5820, 1948.546
500.7650, 1649.610
501.9480, 1327.680
503.1300, 1096.934
504.3120, 848.8511
505.4940, 696.5498
506.6760, 476.0386
507.8580, 309.2324
509.0390, 179.4492
510.2210, 31.02490
511.4020, 142.7368
512.5830, 189.8345
513.7640, 315.5581
514.9450, 357.4844
516.1250, 360.4316
517.3060, 516.2617
518.4860, 600.2471
519.6660, 573.4375
520.8460, 604.8301
522.0260, 588.4448
523.2060, 567.2778
524.3850, 451.3350
525.5650, 455.5630
526.7440, 296.9746
527.9230, 295.5205
529.1020, 227.2363
530.2810, 26.12598
531.4590, 142.8618
532.6380, 342.7920
533.8160, 355.7070
534.9940, 396.6074
536.1720, 451.4927
537.3500, 396.3608
538.5270, 355.2129
539.7050, 327.0459
540.8820, 411.8555
542.0590, 304.6455
543.2360, 361.4062
544.4130, 287.1445
545.5900, 422.8477
546.7660, 424.5283
547.9430, 473.1875
549.1190, 698.8223
550.2950, 801.4336
551.4710, 1010.021
552.6470, 1220.582
553.8220, 1668.117
554.9980, 2049.627
556.1730, 2533.109
557.3480, 3048.563
558.5230, 3612.989
559.6980, 3812.386
560.8730, 3928.752
562.0470, 3795.089
563.2220, 3605.396
564.3960, 3457.670
565.5700, 3311.913
566.7440, 3285.122
567.9170, 3397.299
569.0910, 3632.441
570.2640, 3740.550
571.4380, 4126.624
572.6110, 4181.662
573.7840, 4303.664
574.9570, 4310.628
576.1290, 4185.558
577.3020, 4048.448
578.4740, 3539.300
579.6460, 3384.114
580.8180, 3124.889
581.9900, 2733.624
583.1620, 2743.318
584.3330, 2611.973
585.5040, 2647.587
586.6760, 2627.158
587.8470, 2503.687
589.0180, 2386.173
590.1880, 2289.616
591.3590, 1991.016
592.5290, 1864.373
593.7000, 1597.684
594.8700, 1420.951
596.0400, 1323.172
597.2090, 1254.348
598.3790, 1324.479
599.5490, 1347.561
600.7180, 1499.597
601.8870, 1767.586
603.0560, 2030.527
604.2250, 2445.420
605.3940, 2843.265
606.5620, 3460.060
607.7300, 4336.807
608.8990, 5250.505
610.0670, 6387.151
611.2350, 7720.748
612.4020, 9323.294
613.5700, 11043.79
614.7370, 12828.23
615.9050, 14538.63
617.0720, 16031.96
618.2390, 17572.25
619.4060, 17542.49
620.5720, 16985.67
621.7390, 15330.80
622.9050, 12941.88
624.0710, 10644.90
625.2370, 8359.867
626.4030, 6489.784
627.5690, 4963.643
628.7340, 3849.449
629.9000, 3055.200
631.0650, 2475.895
632.2300, 2006.535
633.3950, 1752.119
634.5600, 1575.648
635.7240, 1568.121
636.8890, 1526.537
638.0530, 1623.897
639.2170, 1680.201
640.3810, 1825.448
641.5450, 1941.639
642.7080, 2053.237
643.8720, 2009.093
645.0350, 2128.485
646.1980, 2059.121
647.3610, 2065.220
648.5240, 1864.150
649.6870, 1838.059
650.8490, 1747.498
652.0120, 1658.960
653.1740, 1539.729
654.3360, 1529.399
655.4980, 1482.183
656.6600, 1469.863
657.8210, 1531.659
658.9830, 1761.497
660.1440, 1961.905
661.3050, 2162.373
662.4660, 2426.417
663.6270, 2740.088
664.7870, 3226.231
665.9480, 3844.130
667.1080, 4676.087
668.2680, 5388.558
669.4280, 6449.341
670.5880, 7766.007
671.7480, 9292.956
672.9070, 10918.75
674.0670, 12632.48
675.2260, 14059.14
676.3850, 15168.74
677.5440, 15812.28
678.7030, 15160.74
679.8610, 14027.04
681.0200, 12364.38
682.1780, 10886.12
683.3360, 9311.327
684.4940, 8176.522
685.6520, 7161.601
686.8090, 6405.618
687.9670, 5963.570
689.1240, 5449.458
690.2810, 5193.283
691.4380, 5358.043
692.5950, 5294.742
693.7520, 5645.377
694.9080, 5868.948
696.0650, 6472.458
697.2210, 7047.904
698.3770, 7940.289
699.5330, 9008.609
700.6880, 10318.87
701.8440, 12208.07
702.9990, 14296.20
704.1550, 16936.28
705.3100, 20216.29
706.4650, 23934.25
707.6190, 28529.14
708.7740, 33644.97
709.9290, 39065.74
711.0830, 44809.45
712.2370, 49723.10
713.3910, 53322.70
714.5450, 55224.23
715.6980, 53846.70
716.8520, 50538.12
718.0050, 45523.48
719.1580, 39222.79
720.3110, 33313.02
721.4640, 27652.21
722.6170, 22990.77
723.7700, 18438.41
724.9220, 15198.43
726.0740, 12315.39
727.2260, 10185.29
728.3780, 8475.142
729.5300, 6957.937
730.6810, 6010.677
731.8330, 5140.363
732.9840, 4475.996
734.1350, 3829.574
735.2860, 3432.101
736.4370, 2975.574
737.5880, 2617.996
738.7380, 2494.365
739.8880, 2186.684
741.0390, 1975.952
742.1890, 1857.169
743.3380, 1738.336
744.4880, 1629.453
745.6380, 1654.521
746.7870, 1647.542
747.9360, 1671.514
749.0850, 1684.438
750.2340, 1766.316
751.3830, 1961.147
752.5310, 2098.932
753.6800, 2233.672
754.8280, 2558.367
755.9760, 2679.018
757.1240, 2932.624
758.2720, 2970.188
759.4190, 3209.710
760.5670, 3104.189
761.7140, 3290.627
762.8610, 3213.025
764.0080, 3361.384
765.1550, 3326.702
766.3020, 3202.982
767.4480, 3068.225
768.5950, 2923.430
769.7410, 2597.599
770.8870, 2387.732
772.0330, 1901.830
773.1780, 1607.894
774.3240, 1327.924
775.4690, 1027.920
776.6140, 803.8848
777.7590, 619.8174
778.9040, 412.7192
780.0490, 260.5903
781.1940, 150.4253
782.3380, 22.20947
783.4820, 17.10742
784.6260, 59.54395
785.7700, 267.1206
786.9140, 310.9438
788.0580, 237.0234
789.2010, 429.2925
790.3450, 416.8066
791.4880, 487.5474
792.6310, 486.5186
793.7730, 622.7061
794.9160, 620.1782
796.0590, 617.8896
797.2010, 592.8135
798.3430, 585.9395
799.4850, 587.2529
800.6270, 536.7544
801.7690, 516.4189
802.9100, 493.2627
804.0520, 383.2690
805.1930, 254.4165
806.3340, 123.6343
807.4750, 46.13232
808.6160, 344.9277
809.7560, 547.7334
810.8970, 848.5288
812.0370, 1175.314
813.1770, 1260.090
814.3170, 1368.857
815.4570, 1313.618
816.5960, 1112.372
817.7360, 945.1226
818.8750, 804.8682
820.0140, 637.6147
821.1530, 502.3584
822.2920, 454.1074
823.4310, 265.8545
824.5690, 300.6016
825.7070, 234.3477
826.8460, 185.0962
827.9840, 124.8457
829.1220, 132.5981
830.2590, 156.3540
831.3970, 148.1138
832.5340, 191.3296
833.6710, 277.6504
834.8080, 273.4287
835.9450, 392.2144
837.0820, 448.0078
838.2190, 510.8110
839.3550, 630.6240
840.4910, 716.4478
841.6270, 829.2832
842.7630, 955.1313
843.8990, 1197.993
845.0350, 1350.868
846.1700, 1438.758
847.3060, 1678.665
848.4410, 1810.588
849.5760, 1895.527
850.7100, 1855.485
851.8450, 2033.461
852.9800, 2111.458
854.1140, 2139.475
855.2480, 2240.514
856.3820, 2312.573
857.5160, 2394.353
858.6500, 2511.762
859.7830, 2568.892
860.9170, 2689.048
862.0500, 2754.229
863.1830, 2805.438
864.3160, 2788.673
865.4480, 3067.937
866.5810, 3011.229
867.7130, 3099.551
868.8460, 3027.904
869.9780, 3130.288
871.1100, 3163.703
872.2410, 3098.151
873.3730, 3100.633
874.5050, 3090.340
875.6360, 3355.698
876.7670, 3345.289
877.8980, 3515.996
879.0290, 3631.612
880.1590, 3844.290
881.2900, 3909.054
882.4200, 4132.863
883.5500, 4418.726
884.6800, 4519.647
885.8100, 5057.615
886.9400, 5340.644
888.0690, 5592.733
889.1990, 6129.892
890.3280, 6869.107
891.4570, 7632.376
892.5860, 8334.708
893.7140, 9124.097
894.8430, 10198.57
895.9710, 11293.10
897.1000, 12425.71
898.2280, 13197.41
899.3560, 14052.20
900.4830, 14684.07
901.6110, 15061.02
902.7380, 15257.05
903.8660, 14885.18
904.9930, 14406.40
906.1200, 13408.70
907.2460, 12504.09
908.3730, 11579.55
909.5000, 10704.08
910.6260, 9873.705
911.7520, 9067.416
912.8780, 8362.208
914.0040, 7721.096
915.1290, 7032.079
916.2550, 6564.679
917.3800, 6241.058
918.5050, 5797.927
919.6300, 5421.596
920.7550, 5354.853
921.8800, 5126.350
923.0040, 5051.386
924.1290, 4894.324
925.2530, 4970.492
926.3770, 5109.719
927.5010, 5249.810
928.6250, 5351.276
929.7480, 5411.496
930.8720, 5523.207
931.9950, 5675.381
933.1180, 5872.479
934.2410, 5774.367
935.3640, 6087.529
936.4860, 6410.209
937.6090, 6634.541
938.7310, 7279.711
939.8530, 7768.173
940.9750, 8583.109
942.0970, 9557.629
943.2180, 10628.95
944.3400, 12005.45
945.4610, 13528.04
946.5820, 15224.75
947.7030, 16852.56
948.8240, 19206.47
949.9450, 20791.50
951.0650, 22828.65
952.1860, 24572.90
953.3060, 26513.27
954.4260, 28033.75
955.5460, 29640.34
956.6650, 31521.05
957.7850, 33778.88
958.9040, 35975.82
960.0230, 38570.89
961.1420, 40886.07
962.2610, 42631.36
963.3800, 43355.75
964.4990, 42939.24
965.6170, 40813.85
966.7350, 38177.57
967.8530, 35279.40
968.9710, 32436.33
970.0890, 29731.37
971.2070, 27974.52
972.3240, 26789.79
973.4410, 26236.16
974.5580, 26096.65
975.6750, 26393.26
976.7920, 26986.97
977.9090, 27826.79
979.0250, 27955.73
980.1410, 27898.78
981.2580, 27395.93
982.3740, 26858.19
983.4890, 25843.56
984.6050, 24849.03
985.7200, 23883.61
986.8360, 23031.30
987.9510, 22547.09
989.0660, 21925.99
990.1810, 21355.00
991.2950, 20652.11
992.4100, 19948.33
993.5240, 19375.66
994.6390, 18729.08
995.7530, 18320.61
996.8660, 17892.26
997.9800, 17539.01
999.0940, 17392.87
1000.207, 17167.83
1001.320, 16873.89
1002.433, 16510.71
1003.546, 16238.33
1004.659, 15506.71
1005.772, 14950.19
1006.884, 14139.78
1007.996, 13139.47
1009.108, 12052.26
1010.220, 10752.87
1011.332, 9817.867
1012.444, 8847.460
1013.555, 7777.717
1014.666, 6905.919
1015.777, 6159.230
1016.888, 5713.697
1017.999, 4857.319
1019.110, 4434.455
1020.220, 3942.827
1021.331, 3567.505
1022.441, 3195.018
1023.551, 2930.210
1024.661, 2631.395
1025.770, 2579.202
1026.880, 2420.681
1027.989, 2406.140
1029.098, 2111.614
1030.207, 2043.166
1031.316, 2083.689
1032.425, 1923.357
1033.533, 1976.067
1034.642, 1939.427
1035.750, 1979.657
1036.858, 2011.677
1037.966, 2064.034
1039.073, 2203.596
1040.181, 2285.485
1041.288, 2434.571
1042.396, 2547.838
1043.503, 2772.851
1044.610, 3063.649
1045.716, 3281.798
1046.823, 3616.021
1047.929, 3922.526
1049.036, 4334.839
1050.142, 4918.947
1051.248, 5271.126
1052.353, 5811.021
1053.459, 6296.887
1054.564, 6830.847
1055.670, 7277.176
1056.775, 7588.321
1057.880, 7522.743
1058.985, 7565.243
1060.089, 7345.952
1061.194, 7103.142
1062.298, 6663.400
1063.402, 6118.849
1064.506, 5712.446
1065.610, 4925.222
1066.713, 4438.091
1067.817, 4146.988
1068.920, 3655.200
1070.023, 3385.283
1071.126, 3387.062
1072.229, 3327.579
1073.332, 3370.461
1074.435, 3485.873
1075.537, 3683.032
1076.639, 3878.127
1077.741, 4227.284
1078.843, 4607.806
1079.945, 4966.445
1081.046, 5363.586
1082.148, 5470.915
1083.249, 5639.022
1084.350, 5388.699
1085.451, 5071.915
1086.551, 4591.525
1087.652, 3911.399
1088.752, 3574.329
1089.853, 3024.065
1090.953, 2689.004
1092.053, 2312.568
1093.152, 2015.399
1094.252, 1917.175
1095.351, 1845.174
1096.451, 1779.371
1097.550, 1846.518
1098.649, 1838.524
1099.748, 1922.241
1100.846, 2127.179
1101.945, 2181.264
1103.043, 2313.036
1104.141, 2435.132
1105.239, 2593.382
1106.337, 2629.323
1107.434, 2506.956
1108.532, 2521.524
1109.629, 2382.169
1110.726, 2230.184
1111.823, 1998.402
1112.920, 1901.496
1114.017, 1794.696
1115.113, 1569.233
1116.210, 1490.481
1117.306, 1406.907
1118.402, 1285.890
1119.498, 1216.207
1120.593, 1073.428
1121.689, 1069.415
1122.784, 1017.567
1123.879, 984.5767
1124.974, 817.2563
1126.069, 680.0464
1127.164, 648.1973
1128.259, 523.7192
1129.353, 400.8955
1130.447, 384.3789
1131.541, 330.3398
1132.635, 251.2842
1133.729, 199.5317
1134.822, 245.2144
1135.916, 255.6504
1137.009, 162.5698
1138.102, 80.67236
1139.195, 87.92285
1140.288, 16.88965
1141.380, 47.00928
1142.473, 14.02588
1143.565, 32.99365
1144.657, 3.166504
1145.749, 146.7930
1146.841, 50.78467
1147.932, 117.0083
1149.024, 116.1030
1150.115, 66.30371
1151.206, 125.5928
1152.297, 127.8696
1153.388, 164.2051
1154.479, 79.46094
1155.569, 74.86035
1156.659, 111.0942
1157.750, 72.99707
1158.839, 195.1138
1159.929, 88.61963
1161.019, 149.1973
1162.108, 196.7603
1163.198, 159.5430
1164.287, 189.1685
1165.376, 160.7993
1166.465, 117.8999
1167.553, 209.9656
1168.642, 128.1460
1169.730, 175.9292
1170.818, 110.0737
1171.906, 90.99780
1172.994, 71.23779
1174.082, 114.5959
1175.170, 137.3804
1176.257, 90.09399
1177.344, 134.3315
1178.431, 133.8496
1179.518, 78.04932
1180.605, 117.6873
1181.691, 66.02563
1182.778, 103.9375
1183.864, 17.45898
1184.950, 62.10791
1186.036, 109.4434
1187.122, 42.04590
1188.207, 82.44409
1189.292, 52.94067
1190.378, 25.67578
1191.463, 26.39429
1192.548, 57.34473
1193.632, 41.28711
1194.717, 54.82275
1195.801, 38.41333
1196.886, 32.66772
1197.970, 5.830811
1199.054, 44.54004
1200.137, 0.6652830
1201.221, 35.69922
1202.305, 9.227295
1203.388, 9.103271
1204.471, 84.25439
1205.554, 70.32983
1206.637, 80.36841
1207.719, 84.33447
1208.802, 80.32471
1209.884, 82.76660
1210.966, 75.43311
1212.048, 76.02808
1213.130, 62.90796
1214.212, 55.17529
1215.293, 69.69556
1216.374, 89.04346
1217.456, 87.24438
1218.536, 67.42285
1219.617, 54.54468
1220.698, 54.42285
1221.778, 66.28662
1222.859, 144.8882
1223.939, 119.4631
1225.019, 150.0444
1226.099, 148.3850
1227.178, 155.6089
1228.258, 166.8848
1229.337, 146.1875
1230.417, 181.3862
1231.496, 180.2942
1232.574, 159.1357
1233.653, 122.9963
1234.732, 189.7495
1235.810, 135.6997
1236.888, 149.1316
1237.966, 191.6848
1239.044, 157.0222
1240.122, 183.4780
1241.199, 223.7859
1242.277, 236.8374
1243.354, 235.9207
1244.431, 222.8242
1245.508, 243.6797
1246.585, 238.2537
1247.661, 274.0522
1248.738, 254.7285
1249.814, 266.3389
1250.890, 293.0078
1251.966, 282.6350
1253.042, 303.0300
1254.117, 256.4854
1255.193, 350.7285
1256.268, 303.9233
1257.343, 227.9473
1258.418, 311.7771
1259.493, 290.3328
1260.567, 348.4919
1261.642, 359.6589
1262.716, 324.1606
1263.790, 292.4736
1264.864, 314.9844
1265.938, 390.0955
1267.011, 359.2593
1268.085, 345.4460
1269.158, 393.6484
1270.231, 370.6082
1271.304, 382.9163
1272.377, 399.7981
1273.450, 370.1418
1274.522, 389.8706
1275.594, 387.5874
1276.666, 442.4099
1277.738, 404.1003
1278.810, 421.6340
1279.882, 439.7314
1280.953, 426.4653
1282.025, 429.4939
1283.096, 393.7703
1284.167, 421.7957
1285.238, 376.8821
1286.308, 395.4775
1287.379, 466.0835
1288.449, 396.6123
1289.519, 403.1384
1290.589, 379.5994
1291.659, 403.1006
1292.729, 347.4868
1293.798, 329.8228
1294.868, 400.5183
1295.937, 373.5449
1297.006, 364.5999
1298.075, 285.5312
1299.143, 309.1694
1300.212, 270.3794
1301.280, 297.3979
1302.348, 302.5938
1303.416, 230.8247
1304.484, 330.2529
1305.552, 243.2317
1306.620, 258.1375
1307.687, 210.7668
1308.754, 240.6494
1309.821, 197.7798
1310.888, 242.8044
1311.955, 189.2844
1313.021, 193.7368
1314.088, 256.0701
1315.154, 265.6458
1316.220, 253.1550
1317.286, 253.6682
1318.352, 246.0022
1319.417, 249.2578
1320.483, 180.5693
1321.548, 216.8191
1322.613, 234.5659
1323.678, 161.2346
1324.743, 150.6506
1325.807, 158.0647
1326.872, 241.6331
1327.936, 173.1831
1329.000, 218.8420
1330.064, 225.9888
1331.128, 231.5027
1332.191, 248.8633
1333.255, 251.6477
1334.318, 244.6997
1335.381, 244.8965
1336.444, 208.0957
1337.507, 242.1599
1338.569, 165.6763
1339.632, 259.7637
1340.694, 236.5908
1341.756, 228.5640
1342.818, 209.0134
1343.880, 226.9270
1344.941, 240.5708
1346.003, 223.9248
1347.064, 212.2764
1348.125, 242.7920
1349.186, 218.1191
1350.247, 253.6934
1351.308, 240.8423
1352.368, 254.8328
1353.428, 218.3877
1354.489, 267.5671
1355.549, 231.3540
1356.608, 205.5054
1357.668, 208.7764
1358.727, 289.9700
1359.787, 306.5610
1360.846, 233.6624
1361.905, 233.5767
1362.964, 166.0869
1364.022, 227.4009
1365.081, 265.4790
1366.139, 241.6904
1367.197, 188.7053
1368.255, 201.3232
1369.313, 253.8091
1370.371, 214.5002
1371.428, 236.8606
1372.486, 226.8594
1373.543, 269.2644
1374.600, 286.6499
1375.657, 208.4421
1376.713, 204.3152
1377.770, 169.8027
1378.826, 159.7651
1379.882, 194.7798
1380.938, 160.0815
1381.994, 188.6833
1383.050, 180.2341
1384.106, 200.2979
1385.161, 229.9565
1386.216, 84.94116
1387.271, 115.7036
1388.326, 103.8069
1389.381, 216.8896
1390.435, 72.63281
1391.490, 201.9043
1392.544, 229.3740
1393.598, 237.3184
1394.652, 183.0432
1395.705, 157.5823
1396.759, 194.3667
1397.812, 158.9653
1398.866, 168.7249
1399.919, 159.2395
1400.972, 150.9746
1402.024, 168.4587
1403.077, 120.9185
1404.129, 117.5520
1405.181, 119.9631
1406.233, 104.5088
1407.285, 136.9062
1408.337, 111.3167
1409.389, 100.7214
1410.440, 117.9722
1411.491, 103.3074
1412.542, 85.41064
1413.593, 152.5601
1414.644, 204.9385
1415.695, 231.0796
1416.745, 224.9600
1417.795, 247.4746
1418.845, 166.4543
1419.895, 222.3911
1420.945, 195.2400
1421.995, 120.4768
1423.044, 193.5967
1424.093, 114.7288
1425.142, 135.3726
1426.191, 208.2810
1427.240, 167.8884
1428.289, 73.73560
1429.337, 121.6282
1430.385, 131.8625
1431.433, 156.9353
1432.481, 152.2683
1433.529, 170.1599
1434.577, 133.4568
1435.624, 123.1143
1436.672, 132.3826
1437.719, 100.2515
1438.766, 122.5430
1439.812, 149.8994
1440.859, 40.94531
1441.905, 108.0034
1442.952, 64.99365
1443.998, 124.0349
1445.044, 127.0088
1446.090, 47.67114
1447.135, 73.15869
1448.181, 8.678223
1449.226, 119.8628
1450.271, 47.65967
1451.316, 62.52417
1452.361, 60.76025
1453.405, 41.24170
1454.450, 75.76245
1455.494, 69.04419
1456.538, 77.93042
1457.582, 90.35767
1458.626, 72.54395
1459.670, 12.10596
1460.713, 73.12109
1461.757, 54.53882
1462.800, 19.17456
1463.843, 97.71045
1464.886, 77.34253
1465.928, 91.82178
1466.971, 106.2920
1468.013, 92.75244
1469.055, 87.87256
1470.097, 54.52441
1471.139, 56.70312
1472.181, 40.87207
1473.222, 43.79907
1474.263, 36.42603
1475.305, 62.73169
1476.346, 95.58252
1477.386, 44.56055
1478.427, 45.62207
1479.468, 5.996094
1480.508, 84.73682
1481.548, 25.40576
1482.588, 59.55566
1483.628, 20.98657
1484.668, 49.03296
1485.707, 70.04126
1486.747, 30.98462
1487.786, 126.8940
1488.825, 5.676025
1489.864, 137.6768
1490.902, 59.19482
1491.941, 102.5415
1492.979, 122.6438
1494.017, 55.76367
1495.055, 30.05835
1496.093, 130.3250
1497.131, 76.62866
1498.168, 40.61597
1499.206, 3.395508
1500.243, 3.706055
1501.280, 17.82422
1502.317, 3.346191
1503.354, 44.69263
1504.390, 3.776123
1505.426, 78.73438
1506.463, 105.9902
1507.499, 45.21704
1508.535, 70.94165
1509.570, 87.47607
1510.606, 57.71240
1511.641, 28.27417
1512.676, 105.5505
1513.711, 84.69189
1514.746, 86.18750
1515.781, 97.84595
1516.816, 83.41992
1517.850, 87.94385
1518.884, 73.44360
1519.918, 103.4314
1520.952, 94.26709
1521.986, 135.4062
1523.019, 80.25317
1524.053, 95.22656
1525.086, 6.349609
1526.119, 161.8694
1527.152, 49.99414
1528.185, 129.7910
1529.217, 69.30176
1530.250, 69.34204
1531.282, 45.47437
1532.314, 123.8538
1533.346, 60.21948
1534.377, 147.1914
1535.409, 121.2744
1536.440, 133.5491
1537.472, 71.13916
1538.503, 97.90137
1539.534, 59.04565
1540.564, 37.78687
1541.595, 147.7805
1542.625, 87.27148
1543.656, 84.32471
1544.686, 82.37354
1545.716, 33.45605
1546.745, 126.4604
1547.775, 45.43311
1548.804, 74.67236
1549.834, 67.51416
1550.863, 38.55957
1551.892, 94.81396
1552.920, 182.0747
1553.949, 248.3364
1554.977, 223.8208
1556.006, 111.5361
1557.034, 121.3413
1558.062, 43.27588
1559.089, 93.27832
1560.117, 128.4648
1561.144, 16.02148
1562.172, 188.8501
1563.199, 142.9897
1564.226, 28.49805
1565.252, 130.4321
1566.279, 60.93115
1567.305, 54.41406
1568.332, 118.0967
1569.358, 1.064453
1570.384, 145.1177
1571.409, 0.0000000E+00
##END=



