##NAMES=Axinite-(Fe)
##RRUFFID=R060183
##IDEAL CHEMISTRY=Ca_4_Fe^2+^_2_Al_4_[B_2_Si_8_O_30_](OH)_2_
##LOCALITY=Skagit Bluffs, near Manning Park, British Columbia, Canada
##OWNER=RRUFF
##SOURCE=Lloyd Twaites
##DESCRIPTION=Light-pink transparent axe-head-shaped single crystal
##STATUS=The identification of this mineral has been confirmed by X-ray diffraction and chemical analysis
##URL=rruff.info/R060183
##MEASURED CHEMISTRY=Ca_2.00_(Fe^2+^_0.58_Mn_0.23_Mg_0.19_)Al_2.00_B_1.00_Si_4.00_O_15_(OH)
##PIN_ID=L00798
##ORIENTATION=Laser parallel to -b* (0 -1 0). Fiducial mark perpendicular to laser is parallel to -c [0 0 -1]
52.67100, 0.0000000E+00
53.91000, 49.16748
55.14900, 68.32715
56.38700, 115.0464
57.62600, 146.0233
58.86400, 247.6484
60.10300, 320.3518
61.34100, 280.3629
62.57900, 278.8469
63.81700, 288.0044
65.05400, 125.2084
66.29200, 79.24133
67.52900, 24.01941
68.76700, 16.43652
70.00400, 52.37878
71.24100, 26.26636
72.47700, 95.61267
73.71400, 144.7864
74.95100, 63.91614
76.18700, 35.88831
77.42300, 36.52905
78.65900, 76.91394
79.89500, 152.9585
81.13100, 239.5859
82.36700, 394.7258
83.60200, 591.6499
84.83700, 853.4771
86.07200, 1123.620
87.30800, 1531.233
88.54200, 1924.096
89.77700, 2378.167
91.01200, 3164.380
92.24600, 3925.653
93.48000, 4440.909
94.71400, 4936.078
95.94800, 5312.119
97.18200, 5478.041
98.41600, 5553.843
99.64900, 5948.490
100.8830, 6253.947
102.1160, 6674.188
103.3490, 7046.188
104.5820, 7539.087
105.8150, 8539.384
107.0470, 8120.543
108.2800, 8563.387
109.5120, 7854.902
110.7440, 6183.075
111.9760, 5064.893
113.2080, 4576.347
114.4400, 4096.425
115.6710, 4039.114
116.9030, 3902.406
118.1340, 3803.296
119.3650, 3734.770
120.5960, 3658.825
121.8270, 3731.454
123.0580, 3782.649
124.2880, 3786.401
125.5190, 3757.705
126.7490, 3622.677
127.9790, 3335.459
129.2090, 3188.622
130.4390, 2948.940
131.6680, 2571.405
132.8980, 2304.992
134.1270, 2177.666
135.3560, 2152.476
136.5850, 2306.438
137.8140, 2503.672
139.0430, 2707.644
140.2710, 2877.369
141.5000, 2836.746
142.7280, 2864.645
143.9560, 3232.795
145.1840, 3709.195
146.4120, 4479.854
147.6390, 5199.780
148.8670, 6008.987
150.0940, 6402.485
151.3210, 6775.277
152.5490, 7353.370
153.7750, 8152.764
155.0020, 8972.462
156.2290, 9258.458
157.4550, 9303.766
158.6810, 8587.375
159.9080, 7914.291
161.1340, 7770.512
162.3590, 8207.040
163.5850, 8767.873
164.8110, 10198.01
166.0360, 12069.45
167.2610, 14382.20
168.4860, 16650.24
169.7110, 17716.59
170.9360, 17246.25
172.1610, 16002.21
173.3850, 13832.45
174.6100, 11668.01
175.8340, 9396.854
177.0580, 7454.998
178.2820, 5842.439
179.5050, 4510.174
180.7290, 3461.202
181.9520, 2479.519
183.1760, 2155.128
184.3990, 1616.024
185.6220, 1456.213
186.8450, 1484.733
188.0670, 1498.575
189.2900, 1878.696
190.5120, 2318.098
191.7340, 2890.776
192.9560, 3304.729
194.1780, 3518.957
195.4000, 3717.457
196.6220, 4903.227
197.8430, 4002.266
199.0640, 4579.571
200.2860, 5665.320
201.5070, 6760.627
202.7270, 8243.480
203.9480, 9656.991
205.1690, 11318.24
206.3890, 12646.33
207.6090, 13862.17
208.8290, 14688.17
210.0490, 15023.03
211.2690, 14623.71
212.4890, 13725.87
213.7080, 12808.42
214.9280, 11098.57
216.1470, 9856.380
217.3660, 8291.811
218.5850, 7122.946
219.8030, 5741.590
221.0220, 4786.544
222.2400, 3778.517
223.4590, 3106.235
224.6770, 2276.380
225.8950, 1777.270
227.1120, 1260.847
228.3300, 970.2251
229.5480, 827.3115
230.7650, 594.7622
231.9820, 674.2739
233.1990, 685.1201
234.4160, 718.2578
235.6330, 1196.680
236.8490, 1368.406
238.0660, 1892.453
239.2820, 2547.842
240.4980, 3237.617
241.7140, 4145.761
242.9300, 4855.280
244.1460, 5303.183
245.3610, 5993.428
246.5770, 6163.016
247.7920, 6397.886
249.0070, 6338.004
250.2220, 6302.959
251.4370, 6101.954
252.6510, 5859.780
253.8660, 5602.836
255.0800, 5094.120
256.2940, 4637.628
257.5080, 4291.359
258.7220, 4150.799
259.9360, 4067.688
261.1490, 4193.860
262.3630, 4395.455
263.5760, 4711.260
264.7890, 5328.274
266.0020, 6018.491
267.2150, 6579.912
268.4270, 7539.533
269.6400, 8018.353
270.8520, 8560.369
272.0640, 8954.578
273.2760, 9058.982
274.4880, 8526.576
275.7000, 8005.362
276.9120, 7233.337
278.1230, 6427.509
279.3340, 5650.866
280.5450, 4728.416
281.7560, 4108.156
282.9670, 3665.087
284.1780, 3482.208
285.3880, 3593.514
286.5980, 3888.004
287.8090, 4503.675
289.0190, 5228.525
290.2290, 6222.552
291.4380, 7836.758
292.6480, 9184.139
293.8570, 10747.69
295.0670, 12493.43
296.2760, 13940.33
297.4850, 15446.41
298.6930, 16502.65
299.9020, 17873.07
301.1110, 19224.66
302.3190, 19965.42
303.5270, 20770.34
304.7350, 21197.43
305.9430, 20601.69
307.1510, 18979.11
308.3580, 16716.68
309.5660, 14338.43
310.7730, 12255.33
311.9800, 10429.40
313.1870, 9062.618
314.3940, 8661.997
315.6010, 8450.532
316.8070, 8164.443
318.0130, 7932.582
319.2200, 7274.689
320.4260, 6458.889
321.6310, 5327.189
322.8370, 4451.635
324.0430, 3437.231
325.2480, 2834.976
326.4540, 2171.864
327.6590, 1887.897
328.8640, 1639.075
330.0680, 1424.396
331.2730, 1316.856
332.4780, 1305.458
333.6820, 1529.199
334.8860, 1920.077
336.0900, 2390.092
337.2940, 3153.242
338.4980, 4103.527
339.7010, 5291.946
340.9050, 6662.500
342.1080, 8239.180
343.3110, 9398.997
344.5140, 10322.94
345.7170, 11023.05
346.9200, 11962.33
348.1220, 13169.80
349.3240, 14219.49
350.5270, 14840.83
351.7290, 14515.71
352.9310, 12938.02
354.1320, 10619.96
355.3340, 8558.377
356.5350, 6615.313
357.7370, 4789.926
358.9380, 3344.121
360.1390, 2076.495
361.3400, 1246.043
362.5400, 510.7505
363.7410, 133.6255
364.9410, 218.3208
366.1410, 441.1304
367.3410, 556.8945
368.5410, 556.6523
369.7410, 540.3960
370.9400, 499.1094
372.1400, 460.7764
373.3390, 395.3721
374.5380, 419.8711
375.7370, 61.27979
376.9360, 65.46875
378.1350, 665.3604
379.3330, 1205.393
380.5310, 1858.689
381.7300, 3129.859
382.9280, 4399.683
384.1260, 6190.231
385.3230, 7891.924
386.5210, 9652.566
387.7180, 10738.68
388.9160, 11893.03
390.1130, 12654.93
391.3100, 13225.36
392.5060, 13006.08
393.7030, 12118.64
394.9000, 10676.32
396.0960, 9147.108
397.2920, 7753.012
398.4880, 6533.027
399.6840, 5451.150
400.8800, 4381.384
402.0750, 3615.728
403.2710, 2830.179
404.4660, 2345.738
405.6610, 1985.405
406.8560, 1648.177
408.0510, 1763.055
409.2450, 1823.039
410.4400, 2147.127
411.6340, 2670.319
412.8280, 3528.615
414.0220, 4295.014
415.2160, 5287.517
416.4100, 5927.120
417.6030, 6573.826
418.7970, 7134.632
419.9900, 8117.701
421.1830, 8889.547
422.3760, 10219.65
423.5690, 11379.85
424.7610, 12679.16
425.9540, 13924.55
427.1460, 14863.05
428.3380, 14766.64
429.5300, 14746.32
430.7220, 13427.09
431.9140, 11945.96
433.1050, 10064.93
434.2970, 8309.978
435.4880, 6884.118
436.6790, 5729.348
437.8700, 5077.667
439.0610, 4647.073
440.2510, 4772.566
441.4420, 4931.142
442.6320, 5152.805
443.8220, 5078.552
445.0120, 4430.382
446.2020, 3751.294
447.3910, 2808.288
448.5810, 2060.362
449.7700, 1435.517
450.9600, 1099.750
452.1490, 837.0605
453.3370, 713.4492
454.5260, 461.9141
455.7150, 365.4546
456.9030, 306.0703
458.0910, 172.7598
459.2800, 67.52295
460.4670, 66.35107
461.6550, 74.75781
462.8430, 85.14209
464.0300, 182.1079
465.2180, 436.1436
466.4050, 608.2471
467.5920, 924.4180
468.7790, 1188.656
469.9650, 1170.961
471.1520, 997.3311
472.3380, 838.7656
473.5250, 584.2642
474.7110, 510.8262
475.8970, 566.4507
477.0820, 770.8579
478.2680, 1048.884
479.4540, 1652.691
480.6390, 2305.558
481.8240, 3171.483
483.0090, 3834.465
484.1940, 3896.506
485.3780, 3660.604
486.5630, 2781.757
487.7470, 2032.964
488.9320, 1202.688
490.1160, 629.9072
491.3000, 158.2080
492.4830, 137.1133
493.6670, 323.3276
494.8500, 448.0039
496.0340, 347.9653
497.2170, 259.2427
498.4000, 23.52051
499.5820, 76.12158
500.7650, 314.7754
501.9480, 642.4707
503.1300, 991.2070
504.3120, 1318.982
505.4940, 1589.796
506.6760, 1983.648
507.8580, 2360.944
509.0390, 2567.482
510.2210, 2688.199
511.4020, 2810.379
512.5830, 2621.571
513.7640, 2316.349
514.9450, 2124.754
516.1250, 1555.051
517.3060, 1118.283
518.4860, 939.9087
519.6660, 582.4297
520.8460, 352.7632
522.0260, 4.133301
523.2060, 99.49170
524.3850, 199.1782
525.5650, 397.9536
526.7440, 344.9365
527.9230, 374.1040
529.1020, 429.4712
530.2810, 276.0698
531.4590, 281.8262
532.6380, 55.74365
533.8160, 144.2837
534.9940, 451.3271
536.1720, 773.3936
537.3500, 1103.480
538.5270, 1738.590
539.7050, 2195.721
540.8820, 2786.871
542.0590, 3296.087
543.2360, 3712.344
544.4130, 3910.510
545.5900, 4074.097
546.7660, 3966.592
547.9430, 3713.193
549.1190, 3415.890
550.2950, 3207.682
551.4710, 3088.560
552.6470, 2971.545
553.8220, 3239.622
554.9980, 3490.797
556.1730, 4090.078
557.3480, 4416.462
558.5230, 4828.923
559.6980, 5102.441
560.8730, 5046.032
562.0470, 4939.697
563.2220, 4566.394
564.3960, 4321.145
565.5700, 4199.923
566.7440, 4155.740
567.9170, 4347.572
569.0910, 4727.409
570.2640, 4967.254
571.4380, 5176.102
572.6110, 5463.952
573.7840, 5401.804
574.9570, 5588.658
576.1290, 5655.512
577.3020, 5877.368
578.4740, 6099.220
579.6460, 6433.074
580.8180, 7209.924
581.9900, 7899.773
583.1620, 8967.621
584.3330, 9936.461
585.5040, 11016.30
586.6760, 11965.13
587.8470, 12301.96
589.0180, 11662.79
590.1880, 10686.60
591.3590, 9419.412
592.5290, 7916.212
593.7000, 6601.007
594.8700, 5562.792
596.0400, 4529.569
597.2090, 3649.335
598.3790, 3216.092
599.5490, 3118.838
600.7180, 2894.352
601.8870, 2873.780
603.0560, 3072.383
604.2250, 3393.030
605.3940, 3681.717
606.5620, 3957.391
607.7300, 4329.050
608.8990, 4623.697
610.0670, 4653.328
611.2350, 4615.944
612.4020, 4562.545
613.5700, 4342.130
614.7370, 4058.699
615.9050, 3787.251
617.0720, 3471.786
618.2390, 3174.083
619.4060, 2848.752
620.5720, 2526.281
621.7390, 2161.742
622.9050, 1788.184
624.0710, 1403.604
625.2370, 1042.006
626.4030, 775.8892
627.5690, 548.7451
628.7340, 299.0820
629.9000, 170.3916
631.0650, 74.15625
632.2300, 22.81348
633.3950, 32.43115
634.5600, 47.62158
635.7240, 116.5161
636.8890, 193.9150
638.0530, 261.9863
639.2170, 399.6919
640.3810, 569.8804
641.5450, 640.6460
642.7080, 692.5684
643.8720, 687.6904
645.0350, 667.8311
646.1980, 535.5215
647.3610, 423.1914
648.5240, 253.8643
649.6870, 116.5728
650.8490, 33.31738
652.0120, 10.92676
653.1740, 26.18311
654.3360, 78.36816
655.4980, 99.47363
656.6600, 115.5269
657.8210, 19.60254
658.9830, 241.0713
660.1440, 429.2158
661.3050, 712.8477
662.4660, 1064.681
663.6270, 1467.824
664.7870, 1984.125
665.9480, 2566.953
667.1080, 3305.646
668.2680, 4336.534
669.4280, 5706.587
670.5880, 6969.514
671.7480, 8507.992
672.9070, 10260.05
674.0670, 11888.90
675.2260, 12972.02
676.3850, 13565.12
677.5440, 13378.38
678.7030, 12374.44
679.8610, 11056.04
681.0200, 9635.688
682.1780, 8208.740
683.3360, 6788.135
684.4940, 5613.717
685.6520, 4852.668
686.8090, 4323.346
687.9670, 3881.146
689.1240, 3605.963
690.2810, 3573.982
691.4380, 3545.049
692.5950, 3757.635
693.7520, 4134.577
694.9080, 4545.824
696.0650, 5105.179
697.2210, 6074.817
698.3770, 7041.558
699.5330, 8177.192
700.6880, 9925.459
701.8440, 12074.64
702.9990, 14766.91
704.1550, 17933.17
705.3100, 21817.22
706.4650, 26761.19
707.6190, 31725.72
708.7740, 37500.57
709.9290, 42940.83
711.0830, 48057.07
712.2370, 51641.28
713.3910, 52902.44
714.5450, 51811.55
715.6980, 48235.63
716.8520, 43379.67
718.0050, 37490.67
719.1580, 31502.62
720.3110, 26091.55
721.4640, 21412.43
722.6170, 17287.27
723.7700, 14455.07
724.9220, 12010.84
726.0740, 9955.561
727.2260, 8504.244
728.3780, 7117.890
729.5300, 6135.496
730.6810, 5257.061
731.8330, 4583.588
732.9840, 4054.075
734.1350, 3723.524
735.2860, 3297.934
736.4370, 2981.304
737.5880, 2714.457
738.7380, 2469.927
739.8880, 2268.184
741.0390, 2115.407
742.1890, 1963.622
743.3380, 1888.800
744.4880, 1773.941
745.6380, 1734.043
746.7870, 1662.106
747.9360, 1722.133
749.0850, 1656.120
750.2340, 1859.070
751.3830, 1828.983
752.5310, 2108.858
753.6800, 2143.695
754.8280, 2263.496
755.9760, 2705.260
757.1240, 3078.986
758.2720, 3492.676
759.4190, 3984.329
760.5670, 4441.946
761.7140, 5021.527
762.8610, 5731.072
764.0080, 6047.582
765.1550, 6419.054
766.3020, 6688.495
767.4480, 6738.436
768.5950, 6301.900
769.7410, 6071.301
770.8870, 5532.341
772.0330, 4815.231
773.1780, 4370.497
774.3240, 3677.932
775.4690, 3152.588
776.6140, 2790.169
777.7590, 2221.808
778.9040, 1951.433
780.0490, 1690.027
781.1940, 1381.592
782.3380, 1167.128
783.4820, 1014.633
784.6260, 906.1104
785.7700, 762.5591
786.9140, 511.8774
788.0580, 531.0869
789.2010, 328.7598
790.3450, 344.0200
791.4880, 268.3447
792.6310, 223.5693
793.7730, 190.5146
794.9160, 93.47656
796.0590, 67.28613
797.2010, 96.83887
798.3430, 79.18604
799.4850, 0.8261720
800.6270, 127.1196
801.7690, 14.91797
802.9100, 142.0439
804.0520, 152.0957
805.1930, 146.2271
806.3340, 237.4448
807.4750, 363.7671
808.6160, 444.1587
809.7560, 412.6201
810.8970, 487.0991
812.0370, 521.5591
813.1770, 351.9976
814.3170, 185.4146
815.4570, 271.8086
816.5960, 122.1812
817.7360, 107.4731
818.8750, 19.23877
820.0140, 169.0679
821.1530, 189.0400
822.2920, 164.1636
823.4310, 288.4258
824.5690, 243.8911
825.7070, 245.5347
826.8460, 218.3574
827.9840, 300.3438
829.1220, 246.5356
830.2590, 269.9038
831.3970, 308.4604
832.5340, 296.2236
833.6710, 207.1870
834.8080, 131.3013
835.9450, 195.5264
837.0820, 207.8945
838.2190, 49.41113
839.3550, 132.9912
840.4910, 39.67822
841.6270, 86.42090
842.7630, 5.242188
843.8990, 115.9014
845.0350, 53.03027
846.1700, 157.1411
847.3060, 180.2397
848.4410, 160.3262
849.5760, 194.4023
850.7100, 224.1074
851.8450, 330.5215
852.9800, 321.5664
854.1140, 385.6016
855.2480, 466.6284
856.3820, 637.6465
857.5160, 560.6562
858.6500, 651.6582
859.7830, 645.6538
860.9170, 823.6416
862.0500, 956.6230
863.1830, 1033.600
864.3160, 1050.569
865.4480, 1125.535
866.5810, 1142.495
867.7130, 1276.450
868.8460, 1309.402
869.9780, 1350.351
871.1100, 1292.296
872.2410, 1273.238
873.3730, 1338.181
874.5050, 1328.124
875.6360, 1572.065
876.7670, 1560.005
877.8980, 1716.947
879.0290, 1568.889
880.1590, 1664.835
881.2900, 1695.799
882.4200, 1866.765
883.5500, 1899.734
884.6800, 2032.716
885.8100, 2388.709
886.9400, 2518.715
888.0690, 2754.725
889.1990, 3152.742
890.3280, 3549.285
891.4570, 4098.813
892.5860, 4697.864
893.7140, 5442.920
894.8430, 6302.986
895.9710, 6975.071
897.1000, 7876.158
898.2280, 8742.275
899.3560, 9515.401
900.4830, 10275.55
901.6110, 10807.73
902.7380, 11054.94
903.8660, 10819.19
904.9930, 10531.46
906.1200, 9952.784
907.2460, 9075.169
908.3730, 8184.610
909.5000, 7194.123
910.6260, 6162.667
911.7520, 5445.233
912.8780, 4812.811
914.0040, 4177.417
915.1290, 3770.033
916.2550, 3289.685
917.3800, 2904.707
918.5050, 2826.040
919.6300, 2313.744
920.7550, 2347.478
921.8800, 2244.223
923.0040, 2036.026
924.1290, 2037.853
925.2530, 1912.716
926.3770, 2176.645
927.5010, 2186.534
928.6250, 2034.357
929.7480, 2113.115
930.8720, 2018.129
931.9950, 2063.893
933.1180, 1921.411
934.2410, 2011.444
935.3640, 2058.146
936.4860, 2078.794
937.6090, 2127.757
938.7310, 2267.596
939.8530, 2319.550
940.9750, 2304.503
942.0970, 2601.937
943.2180, 2762.336
944.3400, 2999.851
945.4610, 3380.335
946.5820, 3594.841
947.7030, 4041.362
948.8240, 4451.900
949.9450, 5040.286
951.0650, 5715.857
952.1860, 6688.902
953.3060, 7867.901
954.4260, 8952.495
955.5460, 10140.77
956.6650, 11874.86
957.7850, 14003.59
958.9040, 16176.62
960.0230, 18183.54
961.1420, 20708.43
962.2610, 22347.14
963.3800, 23487.82
964.4990, 23574.98
965.6170, 23012.79
966.7350, 21798.31
967.8530, 20838.72
968.9710, 19757.85
970.0890, 19526.90
971.2070, 19380.05
972.3240, 19936.57
973.4410, 21059.19
974.5580, 22467.74
975.6750, 23788.29
976.7920, 25411.07
977.9090, 26867.92
979.0250, 27121.22
980.1410, 26837.21
981.2580, 26250.77
982.3740, 24961.37
983.4890, 23607.01
984.6050, 22056.70
985.7200, 20784.44
986.8360, 19716.24
987.9510, 19004.09
989.0660, 18473.99
990.1810, 18137.93
991.2950, 18274.91
992.4100, 18210.95
993.5240, 18662.02
994.6390, 19147.14
995.7530, 19509.30
996.8660, 20046.50
997.9800, 20877.75
999.0940, 21245.04
1000.207, 21450.38
1001.320, 21711.77
1002.433, 21081.20
1003.546, 20697.67
1004.659, 19973.18
1005.772, 18548.74
1006.884, 17269.77
1007.996, 15855.70
1009.108, 13989.38
1010.220, 12276.11
1011.332, 10690.14
1012.444, 9361.601
1013.555, 8254.687
1014.666, 7185.507
1015.777, 6372.454
1016.888, 5704.852
1017.999, 5060.111
1019.110, 4597.433
1020.220, 4226.408
1021.331, 3999.572
1022.441, 3888.678
1023.551, 3727.608
1024.661, 3682.887
1025.770, 3600.891
1026.880, 3642.385
1027.989, 3588.458
1029.098, 3549.304
1030.207, 3344.810
1031.316, 3302.942
1032.425, 3204.864
1033.533, 3272.648
1034.642, 3136.084
1035.750, 3051.308
1036.858, 3279.256
1037.966, 3299.355
1039.073, 3324.469
1040.181, 3450.016
1041.288, 3567.643
1042.396, 3547.385
1043.503, 3673.883
1044.610, 3772.563
1045.716, 3997.652
1046.823, 4219.980
1047.929, 4566.170
1049.036, 4936.177
1050.142, 5348.462
1051.248, 5807.136
1052.353, 6197.494
1053.459, 6604.082
1054.564, 7375.531
1055.670, 7238.314
1056.775, 7911.852
1057.880, 7016.419
1058.985, 6564.094
1060.089, 6275.463
1061.194, 5769.882
1062.298, 5136.595
1063.402, 4598.902
1064.506, 4134.686
1065.610, 3543.506
1066.713, 3273.612
1067.817, 2902.725
1068.920, 2668.710
1070.023, 2707.729
1071.126, 2641.833
1072.229, 2765.938
1073.332, 2930.745
1074.435, 3267.915
1075.537, 3710.111
1076.639, 4280.339
1077.741, 4854.232
1078.843, 5590.548
1079.945, 6326.859
1081.046, 6859.200
1082.148, 7450.573
1083.249, 7321.079
1084.350, 7160.501
1085.451, 6797.083
1086.551, 6126.792
1087.652, 5403.572
1088.752, 4728.872
1089.853, 4160.249
1090.953, 3556.333
1092.053, 3086.622
1093.152, 2880.810
1094.252, 2701.300
1095.351, 2352.726
1096.451, 2139.095
1097.550, 2066.213
1098.649, 1972.089
1099.748, 1980.029
1100.846, 1992.942
1101.945, 2013.154
1103.043, 1946.114
1104.141, 1940.008
1105.239, 1978.674
1106.337, 1760.904
1107.434, 1569.238
1108.532, 1520.237
1109.629, 1448.981
1110.726, 1218.882
1111.823, 1155.430
1112.920, 999.8271
1114.017, 923.5728
1115.113, 855.9971
1116.210, 844.3408
1117.306, 631.9297
1118.402, 611.6279
1119.498, 414.3687
1120.593, 535.3994
1121.689, 400.2881
1122.784, 422.0171
1123.879, 368.8311
1124.974, 334.3774
1126.069, 340.7954
1127.164, 238.9736
1128.259, 297.7070
1129.353, 230.7471
1130.447, 128.6992
1131.541, 83.32178
1132.635, 99.72754
1133.729, 96.74121
1134.822, 39.37354
1135.916, 104.0137
1137.009, 21.82568
1138.102, 27.39746
1139.195, 18.44287
1140.288, 31.26123
1141.380, 72.04199
1142.473, 15.88867
1143.565, 22.78369
1144.657, 41.44482
1145.749, 119.7710
1146.841, 43.08789
1147.932, 21.76758
1149.024, 76.06250
1150.115, 65.96777
1151.206, 76.36133
1152.297, 45.48145
1153.388, 36.39502
1154.479, 81.73877
1155.569, 112.2378
1156.659, 54.95459
1157.750, 3.242676
1158.839, 24.71143
1159.929, 69.18994
1161.019, 11.38232
1162.108, 110.7959
1163.198, 11.15137
1164.287, 100.0376
1165.376, 108.3252
1166.465, 85.01270
1167.553, 127.4326
1168.642, 6.990234
1169.730, 76.53076
1170.818, 63.17188
1171.906, 41.31299
1172.994, 143.9741
1174.082, 34.59229
1175.170, 36.60547
1176.257, 8.152344
1177.344, 77.77979
1178.431, 11.33594
1179.518, 99.95508
1180.605, 143.0054
1181.691, 72.57959
1182.778, 66.68994
1183.864, 66.93018
1184.950, 59.64502
1186.036, 159.5566
1187.122, 59.28418
1188.207, 24.84570
1189.292, 55.62402
1190.378, 16.75830
1191.463, 15.52246
1192.548, 53.67920
1193.632, 9.825195
1194.717, 32.83105
1195.801, 30.27930
1196.886, 15.95020
1197.970, 23.30029
1199.054, 79.61768
1200.137, 71.13379
1201.221, 39.82275
1202.305, 107.3545
1203.388, 31.01855
1204.471, 122.4194
1205.554, 181.8726
1206.637, 111.4204
1207.719, 25.83154
1208.802, 19.24658
1209.884, 87.56055
1210.966, 174.0835
1212.048, 80.40820
1213.130, 59.71680
1214.212, 111.9844
1215.293, 27.06299
1216.374, 57.24463
1217.456, 22.78174
1218.536, 21.26611
1219.617, 4.849121
1220.698, 3.870605
1221.778, 4.097656
1222.859, 82.62012
1223.939, 63.34424
1225.019, 45.75049
1226.099, 128.0112
1227.178, 58.56299
1228.258, 21.08203
1229.337, 83.55029
1230.417, 110.9946
1231.496, 9.592285
1232.574, 143.7515
1233.653, 63.06348
1234.732, 75.33691
1235.810, 1.263184
1236.888, 130.9028
1237.966, 74.03467
1239.044, 88.12646
1240.122, 84.17969
1241.199, 123.1924
1242.277, 166.1709
1243.354, 105.1147
1244.431, 178.0215
1245.508, 50.89258
1246.585, 145.7129
1247.661, 25.50391
1248.738, 46.18994
1249.814, 100.8276
1250.890, 115.5225
1251.966, 78.08008
1253.042, 131.5908
1254.117, 206.6582
1255.193, 139.0928
1256.268, 147.4883
1257.343, 164.9722
1258.418, 121.2915
1259.493, 82.67041
1260.567, 204.8994
1261.642, 106.0903
1262.716, 136.2358
1263.790, 342.3726
1264.864, 362.6294
1265.938, 179.8345
1267.011, 192.0903
1268.085, 155.6841
1269.158, 213.5757
1270.231, 198.6357
1271.304, 148.5889
1272.377, 240.4375
1273.450, 209.3018
1274.522, 232.6875
1275.594, 178.6050
1276.666, 139.3306
1277.738, 219.0405
1278.810, 143.3975
1279.882, 240.0532
1280.953, 171.6484
1282.025, 87.17969
1283.096, 216.6753
1284.167, 148.4248
1285.238, 174.7056
1286.308, 193.3755
1287.379, 241.4600
1288.449, 255.9692
1289.519, 218.7056
1290.589, 162.7837
1291.659, 188.2344
1292.729, 123.0020
1293.798, 158.8013
1294.868, 98.94873
1295.937, 163.3057
1297.006, 176.9365
1298.075, 171.4170
1299.143, 184.3579
1300.212, 59.06445
1301.280, 174.0078
1302.348, 65.51904
1303.416, 80.89746
1304.484, 48.77344
1305.552, 33.76709
1306.620, 67.45068
1307.687, 88.77588
1308.754, 22.72168
1309.821, 105.4824
1310.888, 113.3184
1311.955, 99.79980
1313.021, 22.31445
1314.088, 28.68604
1315.154, 150.3320
1316.220, 25.24756
1317.286, 63.13770
1318.352, 42.88818
1319.417, 72.93506
1320.483, 71.95752
1321.548, 194.8862
1322.613, 145.9771
1323.678, 194.5947
1324.743, 112.2676
1325.807, 86.60156
1326.872, 128.9302
1327.936, 154.4712
1329.000, 109.9023
1330.064, 143.2930
1331.128, 116.6650
1332.191, 146.3145
1333.255, 138.5801
1334.318, 111.8843
1335.381, 140.0957
1336.444, 132.6348
1337.507, 148.7432
1338.569, 100.8491
1339.632, 137.2144
1340.694, 136.7100
1341.756, 141.1470
1342.818, 181.3882
1343.880, 148.4429
1344.941, 200.5522
1346.003, 157.6665
1347.064, 156.9565
1348.125, 179.1309
1349.186, 216.6499
1350.247, 218.0493
1351.308, 172.6196
1352.368, 121.9844
1353.428, 131.6226
1354.489, 257.2300
1355.549, 229.2666
1356.608, 292.0244
1357.668, 290.0854
1358.727, 248.4580
1359.787, 275.5869
1360.846, 330.0020
1361.905, 226.6069
1362.964, 130.5640
1364.022, 181.8208
1365.081, 226.0078
1366.139, 230.5347
1367.197, 214.3369
1368.255, 256.9805
1369.313, 283.1113
1370.371, 317.3779
1371.428, 189.2148
1372.486, 213.2876
1373.543, 171.7002
1374.600, 204.5811
1375.657, 267.4858
1376.713, 257.1851
1377.770, 130.6025
1378.826, 191.2812
1379.882, 196.0630
1380.938, 38.62939
1381.994, 263.4492
1383.050, 289.1011
1384.106, 120.8135
1385.161, 195.6802
1386.216, 126.0991
1387.271, 179.4375
1388.326, 222.0908
1389.381, 182.9453
1390.435, 139.1748
1391.490, 100.7715
1392.544, 103.4468
1393.598, 81.35400
1394.652, 125.1304
1395.705, 81.45410
1396.759, 97.88525
1397.812, 113.2139
1398.866, 67.23633
1399.919, 113.8120
1400.972, 34.16650
1402.024, 100.6851
1403.077, 116.8120
1404.129, 33.61279
1405.181, 142.8306
1406.233, 185.6274
1407.285, 43.88428
1408.337, 109.8740
1409.389, 129.5610
1410.440, 112.6890
1411.491, 162.4595
1412.542, 113.3774
1413.593, 254.3623
1414.644, 166.5020
1415.695, 274.6274
1416.745, 179.6646
1417.795, 209.4243
1418.845, 105.3193
1419.895, 238.2725
1420.945, 170.0327
1421.995, 245.1484
1423.044, 324.9551
1424.093, 164.8496
1425.142, 219.6973
1426.191, 89.60254
1427.240, 131.9746
1428.289, 160.8350
1429.337, 156.5962
1430.385, 187.7227
1431.433, 141.0493
1432.481, 109.0449
1433.529, 136.9517
1434.577, 180.3379
1435.624, 108.3115
1436.672, 101.8096
1437.719, 25.41211
1438.766, 200.8853
1439.812, 136.1245
1440.859, 153.1240
1441.905, 165.2866
1442.952, 94.66455
1443.998, 113.8335
1445.044, 140.6387
1446.090, 91.75342
1447.135, 42.21533
1448.181, 118.1431
1449.226, 100.3325
1450.271, 74.79297
1451.316, 148.6724
1452.361, 144.3604
1453.405, 78.06445
1454.450, 100.6885
1455.494, 87.35938
1456.538, 89.86572
1457.582, 105.4521
1458.626, 91.74951
1459.670, 83.01660
1460.713, 96.74121
1461.757, 120.7388
1462.800, 160.7441
1463.843, 152.2979
1464.886, 18.33350
1465.928, 21.35400
1466.971, 113.3579
1468.013, 179.3574
1469.055, 27.15967
1470.097, 2.155273
1471.139, 2.864746
1472.181, 62.09033
1473.222, 111.0195
1474.263, 107.9419
1475.305, 113.9199
1476.346, 137.7676
1477.386, 75.95605
1478.427, 40.89453
1479.468, 117.6445
1480.508, 12.58398
1481.548, 150.3140
1482.588, 37.10596
1483.628, 181.1392
1484.668, 138.4961
1485.707, 97.86572
1486.747, 61.04395
1487.786, 42.77979
1488.825, 121.5972
1489.864, 108.3335
1490.902, 107.2261
1491.941, 94.76465
1492.979, 75.34473
1494.017, 40.04639
1495.055, 40.73486
1496.093, 56.24658
1497.131, 94.91797
1498.168, 7.592773
1499.206, 81.25977
1500.243, 36.66699
1501.280, 113.3438
1502.317, 66.04346
1503.354, 33.79932
1504.390, 43.64355
1505.426, 90.81299
1506.463, 124.7368
1507.499, 43.71777
1508.535, 31.66748
1509.570, 3.638184
1510.606, 33.21484
1511.641, 113.0781
1512.676, 75.13574
1513.711, 130.0508
1514.746, 116.2588
1515.781, 134.1201
1516.816, 101.1382
1517.850, 77.23828
1518.884, 102.6636
1519.918, 40.09766
1520.952, 173.5820
1521.986, 158.5693
1523.019, 89.35938
1524.053, 27.38525
1525.086, 52.53760
1526.119, 30.93359
1527.152, 97.26562
1528.185, 142.2339
1529.217, 178.1582
1530.250, 136.4756
1531.282, 169.4624
1532.314, 151.4800
1533.346, 126.0532
1534.377, 238.3916
1535.409, 90.50635
1536.440, 145.0205
1537.472, 87.97217
1538.503, 171.0200
1539.534, 153.0518
1540.564, 79.01758
1541.595, 175.2690
1542.625, 197.2061
1543.656, 9.868164
1544.686, 86.03906
1545.716, 128.9355
1546.745, 255.2568
1547.775, 106.2393
1548.804, 279.8911
1549.834, 148.9409
1550.863, 118.1357
1551.892, 199.3726
1552.920, 192.6299
1553.949, 323.9727
1554.977, 271.3940
1556.006, 270.9092
1557.034, 235.6006
1558.062, 59.54932
1559.089, 130.1104
1560.117, 163.7959
1561.144, 102.7417
1562.172, 210.8477
1563.199, 154.0796
1564.226, 124.4404
1565.252, 5.828613
1566.279, 56.38184
1567.305, 166.9624
1568.332, 176.0112
1569.358, 128.4678
1570.384, 1.167480
1571.409, 0.0000000E+00
##END=



