##NAMES=Axinite-(Fe)
##RRUFFID=R060194
##IDEAL CHEMISTRY=Ca_4_Fe^2+^_2_Al_4_[B_2_Si_8_O_30_](OH)_2_
##LOCALITY=near Dalbandi, Baluchistan Province, Pakistan
##OWNER=RRUFF
##SOURCE=Herbert Obodda
##DESCRIPTION=Brown transparent wedge-shaped single crystal
##STATUS=The identification of this mineral has been confirmed by X-ray diffraction and chemical analysis
##URL=rruff.info/R060194
##MEASURED CHEMISTRY=Ca_2.00_(Fe^2+^_0.66_Mg_0.30_Mn_0.04_)Al_2.00_BSi_4.00_O_15_(OH)
##PIN_ID=L01072
##ORIENTATION=Laser parallel to -c* (0 0 -1). Fiducial mark perpendicular to laser is parallel to a [1 0 0]
53.91000, 0.0000000E+00
55.14900, 80.92798
56.38700, 118.3380
57.62600, 175.4203
58.86400, 239.4583
60.10300, 261.5408
61.34100, 399.5204
62.57900, 338.0305
63.81700, 262.9957
65.05400, 248.5331
66.29200, 134.6477
67.52900, 8.197632
68.76700, 8.557922
70.00400, 55.20642
71.24100, 33.72778
72.47700, 166.6104
73.71400, 69.07483
74.95100, 131.9121
76.18700, 91.07886
77.42300, 0.7325440
78.65900, 121.9882
79.89500, 123.9565
81.13100, 139.0583
82.36700, 269.1912
83.60200, 340.2646
84.83700, 622.1963
86.07200, 884.9136
87.30800, 916.3494
88.54200, 1025.444
89.77700, 1147.145
91.01200, 1402.402
92.24600, 1700.126
93.48000, 1956.568
94.71400, 2563.563
95.94800, 2662.083
97.18200, 3278.710
98.41600, 3811.421
99.64900, 4689.212
100.8830, 5585.734
102.1160, 6979.876
103.3490, 7804.686
104.5820, 9004.438
105.8150, 10415.12
107.0470, 12505.69
108.2800, 15394.15
109.5120, 20226.47
110.7440, 23986.64
111.9760, 24082.66
113.2080, 22071.49
114.4400, 19923.14
115.6710, 17582.58
116.9030, 15686.82
118.1340, 14177.84
119.3650, 12562.62
120.5960, 11295.16
121.8270, 10699.46
123.0580, 9866.497
124.2880, 9272.284
125.5190, 8616.025
126.7490, 8185.059
127.9790, 7417.914
129.2090, 6859.019
130.4390, 6374.339
131.6680, 6297.844
132.8980, 6260.515
134.1270, 6602.335
135.3560, 7032.230
136.5850, 7960.320
137.8140, 9213.658
139.0430, 10851.21
140.2710, 12751.28
141.5000, 14725.03
142.7280, 15754.50
143.9560, 15468.59
145.1840, 14501.12
146.4120, 12952.99
147.6390, 11384.21
148.8670, 9752.807
150.0940, 8903.781
151.3210, 8108.142
152.5490, 7487.893
153.7750, 6965.038
155.0020, 6321.580
156.2290, 6206.522
157.4550, 6082.866
158.6810, 5818.612
159.9080, 5557.770
161.1340, 5205.342
162.3590, 5142.333
163.5850, 5122.749
164.8110, 5582.587
166.0360, 5873.848
167.2610, 6555.528
168.4860, 7347.627
169.7110, 8147.141
170.9360, 9283.071
172.1610, 9877.417
173.3850, 10089.17
174.6100, 9758.340
175.8340, 8811.914
177.0580, 7987.895
178.2820, 6774.277
179.5050, 5606.062
180.7290, 4467.247
181.9520, 3522.830
183.1760, 2753.807
184.3990, 2057.177
185.6220, 1852.937
186.8450, 1544.085
188.0670, 1358.619
189.2900, 1411.560
190.5120, 1514.049
191.7340, 1591.081
192.9560, 2029.532
194.1780, 2508.351
195.4000, 3098.532
196.6220, 3412.074
197.8430, 3501.975
199.0640, 3423.230
200.2860, 3497.839
201.5070, 3966.122
202.7270, 4810.133
203.9480, 4947.845
205.1690, 5692.180
206.3890, 6114.320
207.6090, 6765.079
208.8290, 7601.270
210.0490, 8699.559
211.2690, 9576.897
212.4890, 10383.03
213.7080, 10683.53
214.9280, 11234.15
216.1470, 10715.50
217.3660, 10374.15
218.5850, 9706.811
219.8030, 9189.524
221.0220, 8304.516
222.2400, 7312.902
223.4590, 6314.015
224.6770, 5135.795
225.8950, 3945.803
227.1120, 3145.843
228.3300, 2315.036
229.5480, 1749.930
230.7650, 1362.048
231.9820, 1067.359
233.1990, 734.5479
234.4160, 656.7598
235.6330, 730.0293
236.8490, 784.6650
238.0660, 719.6670
239.2820, 854.0859
240.4980, 917.9336
241.7140, 990.2637
242.9300, 1101.011
244.1460, 1147.201
245.3610, 1396.836
246.5770, 1615.848
247.7920, 2058.210
249.0070, 2465.898
250.2220, 3157.900
251.4370, 3773.211
252.6510, 4954.826
253.8660, 6535.743
255.0800, 8589.960
256.2940, 10282.47
257.5080, 11685.29
258.7220, 12481.41
259.9360, 13232.85
261.1490, 13693.62
262.3630, 13483.75
263.5760, 13562.27
264.7890, 14776.17
266.0020, 16489.46
267.2150, 18721.15
268.4270, 20973.22
269.6400, 23572.66
270.8520, 25955.44
272.0640, 28099.50
273.2760, 29855.82
274.4880, 31123.38
275.7000, 31477.19
276.9120, 30853.25
278.1230, 30193.55
279.3340, 28270.11
280.5450, 25843.91
281.7560, 22862.96
282.9670, 19736.26
284.1780, 17310.80
285.3880, 15413.58
286.5980, 14216.61
287.8090, 13853.88
289.0190, 13499.39
290.2290, 13470.13
291.4380, 13621.10
292.6480, 13963.31
293.8570, 14429.75
295.0670, 14646.41
296.2760, 14985.31
297.4850, 15332.43
298.6930, 15234.78
299.9020, 14666.35
301.1110, 14045.15
302.3190, 13062.16
303.5270, 11943.40
304.7350, 10935.85
305.9430, 10012.52
307.1510, 9371.404
308.3580, 8839.501
309.5660, 8323.810
310.7730, 7888.328
311.9800, 7356.055
313.1870, 7081.988
314.3940, 7141.127
315.6010, 7485.467
316.8070, 7901.012
318.0130, 8740.756
319.2200, 9505.697
320.4260, 10227.84
321.6310, 10589.20
322.8370, 10347.92
324.0430, 9680.875
325.2480, 9020.977
326.4540, 7816.343
327.6590, 7405.588
328.8640, 7136.793
330.0680, 7510.503
331.2730, 7523.394
332.4780, 7816.463
333.6820, 8186.711
334.8860, 8365.504
336.0900, 8857.888
337.2940, 9228.497
338.4980, 10009.43
339.7010, 11104.54
340.9050, 12217.80
342.1080, 14252.24
343.3110, 16131.84
344.5140, 17841.60
345.7170, 19270.52
346.9200, 19332.66
348.1220, 18456.01
349.3240, 17067.59
350.5270, 15332.38
351.7290, 13737.39
352.9310, 12365.63
354.1320, 11098.10
355.3340, 9780.445
356.5350, 8309.430
357.7370, 6513.361
358.9380, 4946.293
360.1390, 3573.218
361.3400, 2446.562
362.5400, 1654.688
363.7410, 952.9551
364.9410, 467.4248
366.1410, 56.10547
367.3410, 87.99512
368.5410, 404.9014
369.7410, 460.6885
370.9400, 476.3760
372.1400, 525.9697
373.3390, 532.4854
374.5380, 554.9287
375.7370, 457.3066
376.9360, 266.5947
378.1350, 209.7441
379.3330, 79.25488
380.5310, 434.4355
381.7300, 970.4287
382.9280, 1456.762
384.1260, 2024.817
385.3230, 2738.540
386.5210, 3609.643
387.7180, 4395.500
388.9160, 5358.677
390.1130, 6060.220
391.3100, 6161.016
392.5060, 5987.285
393.7030, 5243.314
394.9000, 4147.499
396.0960, 3141.837
397.2920, 2392.326
398.4880, 1801.966
399.6840, 1462.755
400.8800, 1268.542
402.0750, 1541.326
403.2710, 1596.574
404.4660, 2014.149
405.6610, 2420.771
406.8560, 2769.551
408.0510, 3056.975
409.2450, 3643.046
410.4400, 4435.641
411.6340, 5503.607
412.8280, 6622.488
414.0220, 7752.766
415.2160, 9473.496
416.4100, 11572.45
417.6030, 14202.23
418.7970, 16442.12
419.9900, 17998.13
421.1830, 18825.26
422.3760, 19337.50
423.5690, 20050.85
424.7610, 20868.31
425.9540, 21885.88
427.1460, 21911.56
428.3380, 21147.35
429.5300, 19854.24
430.7220, 17903.24
431.9140, 15955.34
433.1050, 14352.54
434.2970, 12677.84
435.4880, 11176.25
436.6790, 10288.75
437.8700, 9822.346
439.0610, 10151.04
440.2510, 10649.83
441.4420, 11956.71
442.6320, 14114.69
443.8220, 17131.75
445.0120, 20845.91
446.2020, 23690.15
447.3910, 24036.49
448.5810, 22028.91
449.7700, 17839.41
450.9600, 13825.00
452.1490, 10034.68
453.3370, 7116.432
454.5260, 4926.265
455.7150, 3432.180
456.9030, 2517.172
458.0910, 1936.241
459.2800, 1360.387
460.4670, 1059.608
461.6550, 695.9033
462.8430, 464.8311
464.0300, 122.6348
465.2180, 48.52734
466.4050, 69.37402
467.5920, 311.5166
468.7790, 42.06055
469.9650, 97.58594
471.1520, 53.88477
472.3380, 162.4062
473.5250, 409.5596
474.7110, 790.6328
475.8970, 1148.337
477.0820, 1643.100
478.2680, 2271.921
479.4540, 3093.799
480.6390, 3834.732
481.8240, 5177.723
483.0090, 6347.764
484.1940, 7558.859
485.3780, 8789.007
486.5630, 9343.206
487.7470, 8962.455
488.9320, 7670.752
490.1160, 5823.244
491.3000, 3999.636
492.4830, 2735.073
493.6670, 1486.555
494.8500, 1007.078
496.0340, 496.6436
497.2170, 132.2490
498.4000, 60.88184
499.5820, 108.4824
500.7650, 210.9219
501.9480, 92.48535
503.1300, 19.88086
504.3120, 107.2266
505.4940, 297.5898
506.6760, 558.0000
507.8580, 848.4805
509.0390, 1168.002
510.2210, 1633.625
511.4020, 1936.080
512.5830, 2252.889
513.7640, 2337.159
514.9450, 2353.120
516.1250, 2215.398
517.3060, 2003.183
518.4860, 1626.284
519.6660, 1128.021
520.8460, 562.2109
522.0260, 390.7969
523.2060, 153.4395
524.3850, 135.8623
525.5650, 196.2119
526.7440, 439.6592
527.9230, 183.3682
529.1020, 309.2090
530.2810, 325.2539
531.4590, 65.51465
532.6380, 28.13086
533.8160, 161.7246
534.9940, 418.3096
536.1720, 336.9004
537.3500, 510.4990
538.5270, 517.1035
539.7050, 607.7109
540.8820, 433.3232
542.0590, 110.9385
543.2360, 234.5137
544.4130, 16.91895
545.5900, 17.55762
546.7660, 166.0410
547.9430, 248.7920
549.1190, 271.7354
550.2950, 294.8486
551.4710, 350.1475
552.6470, 300.6299
553.8220, 226.3105
554.9980, 109.1807
556.1730, 63.86621
557.3480, 317.9072
558.5230, 601.0381
559.6980, 718.2070
560.8730, 1292.373
562.0470, 1654.528
563.2220, 1732.673
564.3960, 1750.802
565.5700, 1782.918
566.7440, 1445.018
567.9170, 1266.100
569.0910, 1166.167
570.2640, 1181.217
571.4380, 1299.248
572.6110, 1316.261
573.7840, 1634.252
574.9570, 1617.225
576.1290, 1763.176
577.3020, 1884.104
578.4740, 1840.011
579.6460, 1835.895
580.8180, 1878.754
581.9900, 2127.588
583.1620, 2352.397
584.3330, 2793.182
585.5040, 3207.938
586.6760, 3768.666
587.8470, 4608.368
589.0180, 5164.040
590.1880, 6803.684
591.3590, 6543.297
592.5290, 5949.881
593.7000, 5142.433
594.8700, 4211.952
596.0400, 3219.438
597.2090, 2406.894
598.3790, 1842.314
599.5490, 1301.700
600.7180, 805.0518
601.8870, 548.3691
603.0560, 443.6494
604.2250, 256.8867
605.3940, 260.2812
606.5620, 374.9756
607.7300, 388.8174
608.8990, 547.6562
610.0670, 759.3838
611.2350, 834.3789
612.4020, 1242.561
613.5700, 1630.381
614.7370, 1928.165
615.9050, 2147.908
617.0720, 2276.613
618.2390, 2359.276
619.4060, 2420.902
620.5720, 2234.485
621.7390, 2174.028
622.9050, 1805.529
624.0710, 1593.988
625.2370, 1267.405
626.4030, 860.7783
627.5690, 799.1084
628.7340, 666.3955
629.9000, 510.6377
631.0650, 720.8330
632.2300, 847.9834
633.3950, 998.0879
634.5600, 1217.148
635.7240, 1711.162
636.8890, 1981.129
638.0530, 2642.390
639.2170, 3333.193
640.3810, 3987.227
641.5450, 4508.443
642.7080, 5138.352
643.8720, 5696.465
645.0350, 6213.713
646.1980, 6085.425
647.3610, 6051.586
648.5240, 5271.039
649.6870, 4912.971
650.8490, 4104.494
652.0120, 3370.958
653.1740, 2696.078
654.3360, 2336.876
655.4980, 1884.418
656.6600, 1524.388
657.8210, 1375.643
658.9830, 1180.352
660.1440, 1068.206
661.3050, 1073.792
662.4660, 1128.895
663.6270, 1225.104
664.7870, 1337.593
665.9480, 1560.380
667.1080, 1932.363
668.2680, 2390.545
669.4280, 3069.143
670.5880, 3665.677
671.7480, 4436.238
672.9070, 5263.781
674.0670, 6165.039
675.2260, 7234.637
676.3850, 8250.178
677.5440, 9198.660
678.7030, 9628.088
679.8610, 9160.455
681.0200, 8346.767
682.1780, 7357.170
683.3360, 6230.664
684.4940, 5012.072
685.6520, 4120.063
686.8090, 3490.927
687.9670, 2973.655
689.1240, 2524.040
690.2810, 2248.605
691.4380, 2324.816
692.5950, 2267.322
693.7520, 2302.777
694.9080, 2727.648
696.0650, 2966.452
697.2210, 3497.770
698.3770, 3991.355
699.5330, 4665.122
700.6880, 5751.994
701.8440, 6806.328
702.9990, 8281.608
704.1550, 10286.83
705.3100, 12614.01
706.4650, 15779.12
707.6190, 19164.19
708.7740, 23393.20
709.9290, 28077.16
711.0830, 32981.06
712.2370, 38230.92
713.3910, 43273.71
714.5450, 46913.45
715.6980, 47952.14
716.8520, 46915.79
718.0050, 43517.36
719.1580, 38104.89
720.3110, 32059.37
721.4640, 26267.80
722.6170, 21458.17
723.7700, 17339.49
724.9220, 13933.75
726.0740, 11458.97
727.2260, 9382.135
728.3780, 7786.244
729.5300, 6565.302
730.6810, 5408.309
731.8330, 4704.264
732.9840, 3979.168
734.1350, 3367.020
735.2860, 3017.820
736.4370, 2734.571
737.5880, 2298.271
738.7380, 1982.920
739.8880, 1801.520
741.0390, 1512.069
742.1890, 1328.008
743.3380, 1183.093
744.4880, 1077.162
745.6380, 957.4980
746.7870, 874.4707
747.9360, 806.3447
749.0850, 708.7061
750.2340, 682.0527
751.3830, 557.3604
752.5310, 544.6211
753.6800, 475.8359
754.8280, 553.0039
755.9760, 473.1270
757.1240, 462.2051
758.2720, 619.2383
759.4190, 672.2266
760.5670, 664.1699
761.7140, 824.0693
762.8610, 819.9248
764.0080, 885.7363
765.1550, 969.5039
766.3020, 982.2305
767.4480, 1053.912
768.5950, 1082.406
769.7410, 1050.005
770.8870, 1067.562
772.0330, 936.0781
773.1780, 816.5537
774.3240, 732.9883
775.4690, 756.3838
776.6140, 457.7451
777.7590, 375.0850
778.9040, 479.4414
780.0490, 264.8398
781.1940, 209.2471
782.3380, 92.63672
783.4820, 72.97559
784.6260, 38.75293
785.7700, 74.39746
786.9140, 87.51660
788.0580, 19.57324
789.2010, 195.7344
790.3450, 176.0928
791.4880, 220.6367
792.6310, 202.3867
793.7730, 163.3340
794.9160, 249.4580
796.0590, 290.7988
797.2010, 168.3799
798.3430, 135.1348
799.4850, 51.04395
800.6270, 82.06152
801.7690, 156.1973
802.9100, 77.43066
804.0520, 147.2969
805.1930, 44.12793
806.3340, 201.9834
807.4750, 236.9141
808.6160, 379.9297
809.7560, 432.9697
810.8970, 662.0107
812.0370, 843.0332
813.1770, 922.0303
814.3170, 937.9990
815.4570, 939.9424
816.5960, 776.8613
817.7360, 641.7539
818.8750, 495.6230
820.0140, 241.4883
821.1530, 43.33398
822.2920, 51.19141
823.4310, 35.94531
824.5690, 53.06152
825.7070, 186.1455
826.8460, 184.2568
827.9840, 299.3867
829.1220, 167.5820
830.2590, 70.78125
831.3970, 259.9512
832.5340, 251.2168
833.6710, 375.6133
834.8080, 155.2363
835.9450, 0.9726560
837.0820, 57.25684
838.2190, 252.4648
839.3550, 267.8486
840.4910, 255.8340
841.6270, 366.9961
842.7630, 430.1436
843.8990, 572.2773
845.0350, 945.3975
846.1700, 1060.504
847.3060, 1287.600
848.4410, 1515.683
849.5760, 1748.755
850.7100, 2139.816
851.8450, 2394.866
852.9800, 2628.907
854.1140, 2664.938
855.2480, 2911.961
856.3820, 2959.975
857.5160, 3127.980
858.6500, 2949.979
859.7830, 2972.970
860.9170, 2955.955
862.0500, 2795.933
863.1830, 2884.907
864.3160, 2684.875
865.4480, 2719.839
866.5810, 2586.798
867.7130, 2742.754
868.8460, 2664.706
869.9780, 2801.661
871.1100, 2806.615
872.2410, 2843.566
873.3730, 2964.528
874.5050, 2987.490
875.6360, 3008.452
876.7670, 3317.414
877.8980, 3218.394
879.0290, 3568.389
880.1590, 3701.405
881.2900, 3773.463
882.4200, 4157.535
883.5500, 4313.619
884.6800, 4419.739
885.8100, 4723.863
886.9400, 5106.993
888.0690, 5426.133
889.1990, 5895.316
890.3280, 6495.511
891.4570, 7045.713
892.5860, 7986.921
893.7140, 8830.148
894.8430, 9723.377
895.9710, 10908.63
897.1000, 11856.90
898.2280, 13182.17
899.3560, 13958.46
900.4830, 14757.75
901.6110, 15110.06
902.7380, 15471.40
903.8660, 15517.78
904.9930, 15507.99
906.1200, 15097.66
907.2460, 14913.14
908.3730, 14522.66
909.5000, 13662.19
910.6260, 12885.74
911.7520, 11701.34
912.8780, 10638.99
914.0040, 9543.656
915.1290, 8513.334
916.2550, 7568.544
917.3800, 6589.348
918.5050, 6040.412
919.6300, 5348.078
920.7550, 4723.264
921.8800, 4506.164
923.0040, 4189.554
924.1290, 4084.347
925.2530, 3990.225
926.3770, 3835.500
927.5010, 4194.139
928.6250, 4124.062
929.7480, 4261.592
930.8720, 4660.865
931.9950, 4657.709
933.1180, 4805.402
934.2410, 4407.386
935.3640, 4759.832
936.4860, 4475.522
937.6090, 4282.741
938.7310, 4161.100
939.8530, 3921.755
940.9750, 4018.003
942.0970, 4002.222
943.2180, 4544.646
944.3400, 4434.285
945.4610, 5039.977
946.5820, 5381.707
947.7030, 5891.505
948.8240, 6557.336
949.9450, 7221.206
951.0650, 8044.113
952.1860, 8834.843
953.3060, 9708.049
954.4260, 10630.08
955.5460, 11505.14
956.6650, 12541.95
957.7850, 13530.98
958.9040, 14640.20
960.0230, 16206.52
961.1420, 17823.66
962.2610, 19459.09
963.3800, 21654.47
964.4990, 23096.32
965.6170, 24200.43
966.7350, 25101.84
967.8530, 25165.97
968.9710, 24664.47
970.0890, 23857.01
971.2070, 23522.35
972.3240, 23332.58
973.4410, 23890.33
974.5580, 25117.14
975.6750, 27027.99
976.7920, 29972.89
977.9090, 32378.85
979.0250, 35053.84
980.1410, 37752.88
981.2580, 38949.96
982.3740, 39440.09
983.4890, 38059.26
984.6050, 36052.49
985.7200, 33662.76
986.8360, 30465.09
987.9510, 28032.46
989.0660, 25891.88
990.1810, 24284.33
991.2950, 23307.84
992.4100, 22850.39
993.5240, 22416.99
994.6390, 22341.63
995.7530, 22304.31
996.8660, 22521.05
997.9800, 22727.82
999.0940, 22753.65
1000.207, 22801.52
1001.320, 23003.44
1002.433, 22573.40
1003.546, 22554.37
1004.659, 21433.43
1005.772, 20579.54
1006.884, 19031.91
1007.996, 17675.18
1009.108, 15833.43
1010.220, 14104.72
1011.332, 12385.68
1012.444, 10949.98
1013.555, 9339.407
1014.666, 8049.707
1015.777, 6821.898
1016.888, 6039.468
1017.999, 5285.475
1019.110, 4749.152
1020.220, 4214.502
1021.331, 3680.357
1022.441, 3482.114
1023.551, 3140.640
1024.661, 2969.728
1025.770, 2856.664
1026.880, 2747.097
1027.989, 2592.118
1029.098, 2702.646
1030.207, 2526.818
1031.316, 2491.969
1032.425, 2262.399
1033.533, 2032.076
1034.642, 1785.137
1035.750, 1596.289
1036.858, 1542.683
1037.966, 1464.421
1039.073, 1289.268
1040.181, 1257.562
1041.288, 1170.188
1042.396, 1141.867
1043.503, 1125.427
1044.610, 1151.022
1045.716, 1098.986
1046.823, 1095.199
1047.929, 1061.983
1049.036, 987.8643
1050.142, 1193.117
1051.248, 1119.018
1052.353, 1242.402
1053.459, 1148.402
1054.564, 1184.376
1055.670, 1240.506
1056.775, 1253.934
1057.880, 1357.113
1058.985, 1415.771
1060.089, 1425.884
1061.194, 1288.527
1062.298, 1413.947
1063.402, 1406.791
1064.506, 1265.588
1065.610, 1021.140
1066.713, 909.7891
1067.817, 870.0645
1068.920, 769.1963
1070.023, 738.6553
1071.126, 673.4521
1072.229, 665.6992
1073.332, 577.3594
1074.435, 546.2979
1075.537, 515.9756
1076.639, 618.7178
1077.741, 718.5986
1078.843, 846.4189
1079.945, 920.5566
1081.046, 1092.398
1082.148, 1251.645
1083.249, 1475.904
1084.350, 1398.065
1085.451, 1558.886
1086.551, 1719.139
1087.652, 1515.169
1088.752, 1318.330
1089.853, 1257.549
1090.953, 916.6455
1092.053, 886.0713
1093.152, 729.4639
1094.252, 720.0322
1095.351, 620.4531
1096.451, 417.1475
1097.550, 655.4346
1098.649, 487.9570
1099.748, 624.7744
1100.846, 533.4824
1101.945, 557.0938
1103.043, 665.9883
1104.141, 766.0820
1105.239, 728.2607
1106.337, 836.6924
1107.434, 570.5635
1108.532, 896.5410
1109.629, 610.5332
1110.726, 774.5859
1111.823, 680.1230
1112.920, 544.1523
1114.017, 481.1914
1115.113, 375.8623
1116.210, 520.2627
1117.306, 426.1719
1118.402, 488.3535
1119.498, 163.6650
1120.593, 354.7617
1121.689, 317.1338
1122.784, 222.2471
1123.879, 315.4746
1124.974, 242.6230
1126.069, 343.9951
1127.164, 167.2715
1128.259, 223.7256
1129.353, 243.0527
1130.447, 149.3984
1131.541, 143.7607
1132.635, 68.04980
1133.729, 63.93457
1134.822, 51.27246
1135.916, 16.63965
1137.009, 7.803711
1138.102, 87.76855
1139.195, 2.622070
1140.288, 50.70312
1141.380, 20.37500
1142.473, 116.8369
1143.565, 73.45215
1144.657, 19.29199
1145.749, 116.2695
1146.841, 32.21484
1147.932, 18.51270
1149.024, 171.1221
1150.115, 74.80371
1151.206, 16.96680
1152.297, 49.00879
1153.388, 169.8906
1154.479, 55.03125
1155.569, 7.192383
1156.659, 102.6621
1157.750, 69.31836
1158.839, 80.75195
1159.929, 84.96680
1161.019, 1.774414
1162.108, 37.30957
1163.198, 19.49414
1164.287, 83.23730
1165.376, 20.28223
1166.465, 110.4678
1167.553, 110.9756
1168.642, 81.88086
1169.730, 144.6348
1170.818, 14.82812
1171.906, 119.7822
1172.994, 8.835938
1174.082, 44.90918
1175.170, 159.2207
1176.257, 98.86035
1177.344, 19.70801
1178.431, 71.95801
1179.518, 8.980469
1180.605, 61.89941
1181.691, 65.68164
1182.778, 58.90332
1183.864, 506.1328
1184.950, 110.5293
1186.036, 215.7959
1187.122, 48.38574
1188.207, 41.66309
1189.292, 109.4736
1190.378, 65.56836
1191.463, 66.36719
1192.548, 0.1806640
1193.632, 124.6191
1194.717, 18.61621
1195.801, 30.02539
1196.886, 84.90430
1197.970, 3.679688
1199.054, 7.262695
1200.137, 100.0879
1201.221, 2.689453
1202.305, 10.39844
1203.388, 53.28418
1204.471, 60.67871
1205.554, 14.84375
1206.637, 122.7930
1207.719, 33.34180
1208.802, 122.5684
1209.884, 81.70020
1210.966, 184.9287
1212.048, 66.52734
1213.130, 70.36523
1214.212, 87.89453
1215.293, 4.610352
1216.374, 87.82129
1217.456, 142.2158
1218.536, 118.5801
1219.617, 115.0059
1220.698, 153.3027
1221.778, 97.56641
1222.859, 109.7930
1223.939, 100.9863
1225.019, 40.14062
1226.099, 30.75879
1227.178, 79.25195
1228.258, 195.2197
1229.337, 44.42676
1230.417, 228.3008
1231.496, 34.76465
1232.574, 231.5391
1233.653, 156.2803
1234.732, 142.9775
1235.810, 112.6338
1236.888, 19.24707
1237.966, 249.7861
1239.044, 214.4395
1240.122, 201.9043
1241.199, 119.3301
1242.277, 239.7129
1243.354, 225.0557
1244.431, 54.35938
1245.508, 149.6006
1246.585, 110.7988
1247.661, 101.9482
1248.738, 179.0469
1249.814, 305.1035
1250.890, 173.1182
1251.966, 275.0889
1253.042, 215.0195
1254.117, 237.9062
1255.193, 188.0420
1256.268, 214.8438
1257.343, 175.6025
1258.418, 209.3174
1259.493, 207.7354
1260.567, 206.6279
1261.642, 227.4766
1262.716, 141.0303
1263.790, 149.5342
1264.864, 141.0605
1265.938, 303.4893
1267.011, 203.1201
1268.085, 327.4160
1269.158, 223.8408
1270.231, 166.0938
1271.304, 155.2998
1272.377, 203.4023
1273.450, 151.8174
1274.522, 187.8799
1275.594, 291.4092
1276.666, 148.7119
1277.738, 192.6826
1278.810, 18.20898
1279.882, 203.0010
1280.953, 290.3906
1282.025, 223.7393
1283.096, 289.4902
1284.167, 319.6406
1285.238, 255.0244
1286.308, 215.6426
1287.379, 194.7529
1288.449, 161.2051
1289.519, 269.1494
1290.589, 130.4473
1291.659, 163.7617
1292.729, 257.3535
1293.798, 133.5801
1294.868, 232.0566
1295.937, 52.35742
1297.006, 147.4043
1298.075, 124.1006
1299.143, 85.30371
1300.212, 124.8105
1301.280, 83.59863
1302.348, 110.3975
1303.416, 128.1689
1304.484, 189.9678
1305.552, 217.3945
1306.620, 114.5703
1307.687, 249.1680
1308.754, 216.6631
1309.821, 109.8457
1310.888, 128.3184
1311.955, 190.3135
1313.021, 125.7373
1314.088, 110.3867
1315.154, 207.9502
1316.220, 271.0029
1317.286, 105.3311
1318.352, 124.2568
1319.417, 104.7949
1320.483, 119.8799
1321.548, 292.2607
1322.613, 36.28320
1323.678, 192.4316
1324.743, 31.91406
1325.807, 115.3604
1326.872, 59.50098
1327.936, 144.5518
1329.000, 169.6064
1330.064, 138.6865
1331.128, 164.1562
1332.191, 175.9854
1333.255, 120.3652
1334.318, 159.0010
1335.381, 172.5664
1336.444, 138.9854
1337.507, 272.6445
1338.569, 179.9346
1339.632, 301.3701
1340.694, 102.3926
1341.756, 253.3887
1342.818, 227.4766
1343.880, 163.8955
1344.941, 229.8740
1346.003, 240.4307
1347.064, 141.4795
1348.125, 260.5234
1349.186, 279.7041
1350.247, 182.4971
1351.308, 186.3389
1352.368, 205.0557
1353.428, 300.9658
1354.489, 181.6816
1355.549, 281.8467
1356.608, 89.79199
1357.668, 268.5049
1358.727, 40.38965
1359.787, 271.4648
1360.846, 150.3223
1361.905, 250.9395
1362.964, 327.4600
1364.022, 175.7090
1365.081, 202.5088
1366.139, 111.0449
1367.197, 197.7354
1368.255, 241.4639
1369.313, 265.8975
1370.371, 301.6172
1371.428, 295.3594
1372.486, 282.5391
1373.543, 340.6260
1374.600, 265.2949
1375.657, 193.7080
1376.713, 266.8994
1377.770, 244.2881
1378.826, 245.3887
1379.882, 226.7305
1380.938, 138.9404
1381.994, 68.21289
1383.050, 148.2412
1384.106, 315.3496
1385.161, 138.2627
1386.216, 190.0264
1387.271, 506.9648
1388.326, 76.75098
1389.381, 284.7588
1390.435, 273.1611
1391.490, 258.9707
1392.544, 214.2920
1393.598, 77.34473
1394.652, 97.11133
1395.705, 88.14355
1396.759, 155.9629
1397.812, 237.4170
1398.866, 28.80078
1399.919, 82.48145
1400.972, 132.7725
1402.024, 54.34961
1403.077, 223.2725
1404.129, 119.4980
1405.181, 120.0664
1406.233, 222.0186
1407.285, 165.6475
1408.337, 123.5127
1409.389, 114.1855
1410.440, 74.05273
1411.491, 168.4131
1412.542, 102.2246
1413.593, 103.8496
1414.644, 231.3535
1415.695, 132.6602
1416.745, 126.4668
1417.795, 167.4678
1418.845, 133.7432
1419.895, 118.4248
1420.945, 97.23242
1421.995, 154.6729
1423.044, 200.3770
1424.093, 336.4209
1425.142, 171.2598
1426.191, 122.4688
1427.240, 112.4014
1428.289, 204.6973
1429.337, 226.4990
1430.385, 144.4688
1431.433, 226.8545
1432.481, 180.2998
1433.529, 119.2803
1434.577, 175.7715
1435.624, 88.19531
1436.672, 140.0615
1437.719, 151.0537
1438.766, 92.59180
1439.812, 52.55859
1440.859, 36.45996
1441.905, 139.8301
1442.952, 191.2402
1443.998, 115.1260
1445.044, 113.2217
1446.090, 112.1982
1447.135, 127.6348
1448.181, 191.8184
1449.226, 204.3965
1450.271, 116.5625
1451.316, 129.3291
1452.361, 27.98730
1453.405, 98.62305
1454.450, 24.31543
1455.494, 157.1562
1456.538, 108.9697
1457.582, 45.98535
1458.626, 212.6816
1459.670, 104.6621
1460.713, 178.6377
1461.757, 210.4795
1462.800, 41.40137
1463.843, 52.30176
1464.886, 140.2314
1465.928, 172.8594
1466.971, 259.0723
1468.013, 214.9014
1469.055, 109.9365
1470.097, 167.8672
1471.139, 11.60840
1472.181, 102.5117
1473.222, 70.39453
1474.263, 65.28906
1475.305, 118.1855
1476.346, 132.0742
1477.386, 119.9521
1478.427, 123.4385
1479.468, 118.2920
1480.508, 125.1270
1481.548, 113.7373
1482.588, 102.1377
1483.628, 84.12109
1484.668, 102.2637
1485.707, 70.69141
1486.747, 141.5830
1487.786, 83.97852
1488.825, 203.1885
1489.864, 183.7549
1490.902, 9.492188
1491.941, 67.19629
1492.979, 39.62402
1494.017, 8.112305
1495.055, 40.05762
1496.093, 27.99609
1497.131, 53.27148
1498.168, 44.87695
1499.206, 64.65918
1500.243, 56.90820
1501.280, 76.30957
1502.317, 80.18164
1503.354, 151.0654
1504.390, 114.9658
1505.426, 118.7695
1506.463, 169.6396
1507.499, 147.7275
1508.535, 128.6865
1509.570, 166.6680
1510.606, 20.32422
1511.641, 162.7148
1512.676, 22.18457
1513.711, 96.37598
1514.746, 72.87305
1515.781, 77.39551
1516.816, 120.7119
1517.850, 168.8203
1518.884, 191.1865
1519.918, 73.28613
1520.952, 106.4072
1521.986, 207.5283
1523.019, 60.76074
1524.053, 123.6133
1525.086, 196.6729
1526.119, 96.79004
1527.152, 116.9160
1528.185, 93.05664
1529.217, 151.2178
1530.250, 263.3164
1531.282, 254.5547
1532.314, 187.2227
1533.346, 89.83496
1534.377, 196.4355
1535.409, 10.67773
1536.440, 203.2949
1537.472, 170.2295
1538.503, 0.4335940
1539.534, 202.6494
1540.564, 87.88965
1541.595, 81.15137
1542.625, 142.5771
1543.656, 121.9297
1544.686, 168.4414
1545.716, 125.3135
1546.745, 113.0459
1547.775, 137.0010
1548.804, 125.2607
1549.834, 153.3506
1550.863, 171.5820
1551.892, 188.6084
1552.920, 258.4629
1553.949, 319.1924
1554.977, 341.2930
1556.006, 163.3320
1557.034, 336.4609
1558.062, 282.1465
1559.089, 109.9717
1560.117, 151.3477
1561.144, 91.47656
1562.172, 2.661133
1563.199, 228.9082
1564.226, 124.3584
1565.252, 109.8232
1566.279, 115.6406
1567.305, 57.59082
1568.332, 15.84277
1569.358, 166.1123
1570.384, 0.3671880
1571.409, 65.94629
1572.435, 0.0000000E+00
##END=



