##NAMES=Axinite-(Fe)
##RRUFFID=R060558
##IDEAL CHEMISTRY=Ca_4_Fe^2+^_2_Al_4_[B_2_Si_8_O_30_](OH)_2_
##LOCALITY=unknown
##OWNER=RRUFF
##SOURCE=Gemological Institute of America
##DESCRIPTION=Brown flattened crystal
##STATUS=The identification of this mineral has been confirmed by X-ray diffraction and chemical analysis
##URL=rruff.info/R060558
##MEASURED CHEMISTRY=Ca_2.00_(Fe^2+^_0.60_Mg_0.35_Mn_0.05_)_Î£=1_Al_2.00_BSi_4.00_O_15_(OH) ; B not measured
##PIN_ID=M01661
##ORIENTATION=Laser parallel to (1 1 0). Fiducial mark perpendicular to laser is parallel to c [0 0 1]
95.27200, 0.0000000E+00
96.51900, 14.95020
97.76500, 221.1296
99.01100, 308.9827
100.2570, 398.4932
101.5030, 480.0063
102.7490, 738.5361
103.9940, 1160.196
105.2390, 1814.543
106.4840, 2795.495
107.7290, 3654.141
108.9740, 3952.662
110.2180, 3652.646
111.4620, 3515.638
112.7060, 3469.335
113.9500, 3582.760
115.1940, 3239.417
116.4370, 2994.082
117.6800, 2863.579
118.9230, 2506.357
120.1660, 2222.059
121.4090, 1898.880
122.6510, 1599.405
123.8940, 1102.110
125.1360, 575.3926
126.3770, 289.5764
127.6190, 172.9297
128.8600, 31.32104
130.1020, 19.02124
131.3430, 86.12720
132.5840, 142.1418
133.8240, 463.1904
135.0650, 867.3887
136.3050, 1315.843
137.5450, 2025.645
138.7850, 2465.296
140.0250, 2664.489
141.2640, 2670.858
142.5030, 2453.840
143.7430, 2070.128
144.9810, 1815.966
146.2200, 1459.163
147.4590, 1389.700
148.6970, 1402.560
149.9350, 1295.728
151.1730, 1168.189
152.4110, 985.9316
153.6480, 900.9465
154.8860, 668.2119
156.1230, 510.6790
157.3600, 445.3169
158.5960, 372.1216
159.8330, 352.0918
161.0690, 488.2256
162.3050, 609.5212
163.5410, 712.9844
164.7770, 978.6472
166.0130, 1148.475
167.2480, 1396.454
168.4830, 1615.584
169.7180, 1970.862
170.9530, 2101.304
172.1880, 2050.956
173.4220, 1828.833
174.6560, 1484.942
175.8900, 1079.278
177.1240, 752.8364
178.3580, 424.6096
179.5910, 181.5886
180.8250, 39.23438
182.0580, 196.8713
183.2900, 316.3352
184.5230, 338.6375
185.7560, 407.7874
186.9880, 399.8008
188.2200, 286.6763
189.4520, 185.4199
190.6830, 131.0369
191.9150, 82.45654
193.1460, 167.0227
194.3770, 308.6433
195.6080, 261.3193
196.8390, 329.0513
198.0700, 497.8408
199.3000, 747.6882
200.5300, 1090.974
201.7600, 1595.561
202.9900, 2044.587
204.2190, 2637.675
205.4490, 3332.823
206.6780, 3944.033
207.9070, 4596.311
209.1360, 5073.682
210.3640, 5507.138
211.5930, 5722.659
212.8210, 5971.070
214.0490, 5974.070
215.2770, 5924.552
216.5040, 5749.660
217.7320, 5202.657
218.9590, 4620.748
220.1860, 3794.938
221.4130, 3193.222
222.6400, 2323.601
223.8660, 1755.073
225.0920, 1323.636
226.3190, 992.2896
227.5450, 650.0322
228.7700, 496.8628
229.9960, 419.7805
231.2210, 300.2903
232.4460, 398.4541
233.6710, 391.1279
234.8960, 421.4363
236.1210, 519.7546
237.3450, 802.1543
238.5690, 825.6345
239.7930, 847.1953
241.0170, 811.9336
242.2410, 708.9670
243.4640, 565.6716
244.6870, 619.7485
245.9100, 722.6377
247.1330, 851.0757
248.3560, 1099.919
249.5780, 1682.048
250.8000, 2298.393
252.0230, 3084.900
253.2440, 3662.531
254.4660, 4224.263
255.6880, 4364.064
256.9090, 4329.907
258.1300, 4447.771
259.3510, 4630.649
260.5720, 4848.518
261.7920, 5252.231
263.0130, 5735.675
264.2330, 6292.169
265.4530, 7044.019
266.6730, 7817.764
267.8920, 8729.397
269.1120, 9463.938
270.3310, 9771.395
271.5500, 10154.79
272.7690, 10268.12
273.9880, 10031.40
275.2060, 9712.646
276.4240, 9062.419
277.6430, 8236.600
278.8600, 7237.755
280.0780, 6435.893
281.2960, 5646.017
282.5130, 5266.130
283.7300, 4981.235
284.9470, 4778.335
286.1640, 4746.083
287.3810, 4620.144
288.5970, 4474.437
289.8130, 4555.283
291.0290, 4427.023
292.2450, 4519.829
293.4610, 4292.698
294.6760, 4199.628
295.8910, 3972.620
297.1060, 3751.669
298.3210, 3361.775
299.5360, 3066.609
300.7510, 2788.156
301.9650, 2422.428
303.1790, 2216.752
304.3930, 2092.129
305.6070, 2127.557
306.8200, 2216.035
308.0340, 2469.565
309.2470, 2961.143
310.4600, 3568.771
311.6730, 4303.446
312.8850, 5224.176
314.0980, 6364.979
315.3100, 7589.847
316.5220, 8925.796
317.7340, 9758.814
318.9460, 10017.04
320.1570, 9716.796
321.3690, 8853.509
322.5800, 7841.784
323.7910, 6674.056
325.0010, 5917.364
326.2120, 5119.712
327.4220, 4746.310
328.6330, 4464.219
329.8430, 4423.786
331.0520, 4391.108
332.2620, 4564.240
333.4720, 4751.016
334.6810, 5217.036
335.8900, 5791.210
337.0990, 6554.613
338.3070, 7400.057
339.5160, 8378.793
340.7240, 9503.564
341.9320, 10665.37
343.1400, 11246.21
344.3480, 10875.08
345.5560, 9892.989
346.7630, 8114.927
347.9700, 6590.897
349.1770, 5127.901
350.3840, 3832.938
351.5910, 2940.006
352.7970, 2247.106
354.0040, 1695.237
355.2100, 1150.398
356.4160, 888.5908
357.6220, 560.8130
358.8270, 394.0659
360.0320, 261.3516
361.2380, 138.6714
362.4430, 69.02808
363.6470, 29.57861
364.8520, 25.84888
366.0560, 34.68750
367.2610, 28.19165
368.4650, 30.66260
369.6690, 15.89893
370.8720, 2.504150
372.0760, 147.1270
373.2790, 167.7927
374.4820, 108.4932
375.6850, 257.2283
376.8880, 305.9944
378.0910, 536.7876
379.2930, 610.6111
380.4950, 928.4678
381.6970, 1164.373
382.8990, 1631.988
384.1010, 1963.987
385.3020, 2331.429
386.5040, 2750.676
387.7050, 3051.174
388.9060, 3047.481
390.1060, 2921.266
391.3070, 2403.659
392.5070, 2166.801
393.7080, 1707.963
394.9080, 1366.141
396.1070, 1123.333
397.3070, 1051.537
398.5070, 1050.840
399.7060, 1157.284
400.9050, 1205.058
402.1040, 1322.450
403.3030, 1351.627
404.5010, 1269.959
405.7000, 1365.264
406.8980, 1311.940
408.0960, 1384.446
409.2940, 1564.759
410.4910, 1710.084
411.6890, 2024.418
412.8860, 2190.764
414.0830, 2576.122
415.2800, 3078.490
416.4770, 3646.661
417.6730, 4489.263
418.8690, 5143.667
420.0660, 6015.085
421.2620, 6952.518
422.4570, 7824.962
423.6530, 8507.421
424.8480, 9028.891
426.0440, 9059.371
427.2390, 8598.865
428.4340, 8126.375
429.6280, 7198.896
430.8230, 6417.431
432.0170, 5605.980
433.2110, 4916.552
434.4050, 4243.144
435.5990, 3943.761
436.7930, 3710.398
437.9860, 3833.058
439.1800, 4213.738
440.3730, 4678.441
441.5660, 5596.165
442.7580, 6533.907
443.9510, 7366.673
445.1430, 7389.456
446.3350, 6592.259
447.5270, 5399.082
448.7190, 4258.922
449.9110, 3175.784
451.1020, 2303.662
452.2930, 1589.559
453.4850, 1073.473
454.6750, 716.4048
455.8660, 494.2532
457.0570, 435.3984
458.2470, 223.2461
459.4370, 85.87354
460.6270, 102.5764
461.8170, 3.271240
463.0070, 40.39673
464.1960, 14.98535
465.3850, 27.94678
466.5750, 50.09204
467.7630, 36.14307
468.9520, 96.20654
470.1410, 189.2815
471.3290, 179.3999
472.5170, 247.6023
473.7050, 319.9189
474.8930, 394.3560
476.0810, 583.9297
477.2680, 767.6375
478.4560, 1009.450
479.6430, 1390.338
480.8300, 1803.289
482.0160, 2077.251
483.2030, 2653.222
484.3890, 2748.202
485.5760, 2765.191
486.7620, 2471.189
487.9480, 1946.195
489.1330, 1453.208
490.3190, 1082.229
491.5040, 672.2581
492.6890, 511.2939
493.8740, 323.3367
495.0590, 301.3865
496.2440, 149.4424
497.4280, 148.5044
498.6120, 155.5725
499.7960, 88.64697
500.9800, 65.72729
502.1640, 43.81836
503.3470, 97.91870
504.5310, 87.04492
505.7140, 196.1970
506.8970, 257.9072
508.0800, 350.1101
509.2620, 440.7664
510.4450, 576.6008
511.6270, 718.4241
512.8090, 773.7776
513.9910, 770.2209
515.1730, 672.5557
516.3550, 616.0503
517.5360, 512.5881
518.7170, 324.1692
519.8980, 223.7944
521.0790, 124.4590
522.2600, 64.15698
523.4400, 17.88721
524.6210, 81.35742
525.8010, 149.6316
526.9810, 202.9734
528.1610, 198.4172
529.3400, 216.9661
530.5200, 196.6382
531.6990, 107.4263
532.8780, 52.28467
534.0570, 63.18506
535.2360, 109.8657
536.4140, 83.91431
537.5930, 80.96045
538.7710, 81.00366
539.9490, 30.04419
541.1270, 2.079346
542.3040, 16.09668
543.4820, 30.10278
544.6590, 9.102539
545.8360, 7.086914
547.0130, 42.05566
548.1900, 28.97314
549.3670, 32.97241
550.5430, 78.91016
551.7190, 77.84424
552.8960, 193.7749
554.0710, 284.7007
555.2470, 430.6221
556.4230, 605.5381
557.5980, 877.4487
558.7730, 1046.353
559.9480, 1217.252
561.1230, 1417.145
562.2980, 1338.031
563.4720, 1344.911
564.6470, 1447.784
565.8210, 1345.568
566.9950, 1585.510
568.1690, 1294.363
569.3420, 1433.208
570.5160, 1536.044
571.6890, 1600.874
572.8620, 1746.696
574.0350, 1704.509
575.2080, 1568.314
576.3800, 1396.111
577.5530, 1154.899
578.7250, 1105.677
579.8970, 947.4470
581.0690, 822.2075
582.2410, 723.9578
583.4120, 721.6985
584.5830, 732.4292
585.7550, 633.1494
586.9260, 660.8594
588.0960, 676.5583
589.2670, 640.2468
590.4380, 573.9238
591.6080, 408.5898
592.7780, 389.2441
593.9480, 257.8867
595.1180, 135.5178
596.2870, 23.13647
597.4570, 31.27588
598.6260, 25.74805
599.7950, 69.27783
600.9640, 37.88794
602.1330, 3.437256
603.3010, 39.43311
604.4700, 78.17725
605.6380, 118.8535
606.8060, 300.9926
607.9740, 409.1639
609.1420, 532.3215
610.3090, 775.4658
611.4760, 1015.596
612.6440, 1202.724
613.8110, 1393.825
614.9770, 1449.911
616.1440, 1712.981
617.3110, 1871.035
618.4770, 1844.072
619.6430, 1850.090
620.8090, 1675.091
621.9750, 1525.073
623.1400, 1208.036
624.3060, 1044.980
625.4710, 790.9053
626.6360, 665.8115
627.8010, 490.6987
628.9660, 530.5667
630.1300, 482.4146
631.2950, 519.2434
632.4590, 629.0522
633.6230, 699.8417
634.7870, 853.6107
635.9510, 1050.672
637.1140, 1318.089
638.2780, 1538.798
639.4410, 1835.550
640.6040, 2142.253
641.7670, 2413.976
642.9290, 2559.472
644.0920, 2587.638
645.2540, 2539.828
646.4160, 2397.358
647.5780, 2168.103
648.7400, 1811.569
649.9020, 1582.523
651.0630, 1348.077
652.2250, 1040.946
653.3860, 927.4036
654.5470, 725.6555
655.7080, 629.6465
656.8680, 543.4341
658.0290, 529.2145
659.1890, 500.2415
660.3490, 543.0747
661.5090, 558.7734
662.6690, 575.8770
663.8280, 665.0184
664.9880, 745.5420
666.1470, 835.1614
667.3060, 970.0005
668.4650, 1233.137
669.6240, 1461.305
670.7820, 1785.240
671.9410, 1995.586
673.0990, 2496.274
674.2570, 2798.204
675.4150, 3007.103
676.5720, 3114.975
677.7300, 3062.820
678.8870, 2781.638
680.0450, 2420.344
681.2020, 2109.893
682.3590, 1756.098
683.5150, 1496.725
684.6720, 1202.585
685.8280, 1066.406
686.9840, 862.2802
688.1400, 879.8162
689.2960, 806.1931
690.4520, 845.9148
691.6070, 878.5854
692.7630, 915.1685
693.9180, 980.7682
695.0730, 1133.213
696.2280, 1286.630
697.3820, 1480.021
698.5370, 1783.384
699.6910, 2110.721
700.8450, 2627.031
701.9990, 3245.316
703.1530, 3995.573
704.3070, 4823.804
705.4600, 5990.007
706.6130, 7362.184
707.7660, 8954.335
708.9190, 10708.46
710.0720, 12508.56
711.2250, 14434.62
712.3770, 15662.67
713.5300, 16322.69
714.6820, 16097.68
715.8340, 14774.64
716.9850, 12896.58
718.1370, 10833.50
719.2880, 8971.381
720.4400, 7372.242
721.5910, 5944.074
722.7420, 4756.881
723.8930, 3912.663
725.0430, 3193.418
726.1940, 2639.148
727.3440, 2160.851
728.4940, 1827.529
729.6440, 1573.181
730.7940, 1424.807
731.9430, 1165.407
733.0930, 984.9817
734.2420, 856.5309
735.3910, 802.1550
736.5400, 674.4745
737.6890, 616.0825
738.8370, 522.9017
739.9860, 452.6370
741.1340, 417.9133
742.2820, 306.4567
743.4300, 283.4447
744.5780, 289.7921
745.7250, 240.1234
746.8730, 261.4323
748.0200, 215.7188
749.1670, 213.9832
750.3140, 164.2255
751.4610, 197.4456
752.6070, 177.6438
753.7540, 221.8206
754.9000, 225.9756
756.0460, 188.1095
757.1920, 305.2220
758.3380, 324.3135
759.4830, 292.3840
760.6280, 306.4336
761.7740, 383.4626
762.9190, 337.4711
764.0640, 373.4590
765.2080, 396.4266
766.3530, 386.3744
767.4970, 407.3022
768.6420, 388.2103
769.7860, 333.0989
770.9300, 370.9680
772.0730, 300.8179
773.2170, 238.6488
774.3600, 213.4608
775.5040, 177.2542
776.6470, 127.0289
777.7900, 132.7847
778.9320, 32.52161
780.0750, 40.22961
781.2170, 33.08899
782.3600, 34.46765
783.5020, 40.90637
784.6440, 29.40808
785.7850, 41.96606
786.9270, 98.58667
788.0680, 93.29883
789.2100, 115.4011
790.3510, 125.9989
791.4920, 124.0028
792.6320, 137.1094
793.7730, 119.3243
794.9130, 120.6381
796.0540, 126.0503
797.1940, 108.5630
798.3340, 91.16638
799.4730, 85.07556
800.6130, 70.73523
801.7520, 57.43921
802.8920, 50.30127
804.0310, 30.17480
805.1700, 17.03406
806.3090, 14.12805
807.4470, 52.60339
808.5860, 76.58215
809.7240, 151.8523
810.8620, 202.1305
812.0000, 267.4200
813.1380, 190.6980
814.2750, 228.9646
815.4130, 202.2200
816.5500, 155.4642
817.6870, 140.6991
818.8240, 114.9307
819.9610, 49.15576
821.0980, 38.37195
822.2340, 12.58301
823.3700, 18.21143
824.5070, 36.02930
825.6430, 50.13635
826.7780, 9.294922
827.9140, 10.44275
829.0500, 22.58044
830.1850, 9.709106
831.3200, 55.82849
832.4550, 106.9406
833.5900, 85.04529
834.7250, 149.1431
835.8590, 156.2343
836.9930, 168.3190
838.1280, 307.3976
839.2620, 278.4702
840.3950, 332.5370
841.5290, 459.5984
842.6630, 461.6545
843.7960, 603.7056
844.9290, 738.7520
846.0620, 823.7939
847.1950, 1009.832
848.3280, 1078.865
849.4600, 1220.895
850.5930, 1310.922
851.7250, 1371.945
852.8570, 1398.964
853.9890, 1492.982
855.1210, 1483.996
856.2520, 1537.008
857.3840, 1555.018
858.5150, 1529.026
859.6460, 1519.033
860.7770, 1452.038
861.9080, 1453.042
863.0380, 1437.045
864.1690, 1405.739
865.2990, 1414.050
866.4290, 1406.052
867.5590, 1360.054
868.6890, 1440.057
869.8190, 1388.060
870.9480, 1510.065
872.0770, 1410.081
873.2070, 1386.123
874.3360, 1467.189
875.4640, 1468.291
876.5930, 1589.421
877.7220, 1533.576
878.8500, 1556.760
879.9780, 1657.950
881.1060, 1678.142
882.2340, 1680.338
883.3620, 1718.538
884.4890, 1715.742
885.6170, 1777.959
886.7440, 1859.183
887.8710, 1898.435
888.9980, 1985.695
890.1240, 2216.964
891.2510, 2376.239
892.3770, 2536.523
893.5040, 2769.817
894.6300, 3185.121
895.7560, 3541.432
896.8810, 3844.751
898.0070, 4118.077
899.1330, 4519.418
900.2580, 4848.773
901.3830, 5227.135
902.5080, 5636.516
903.6330, 5996.910
904.7570, 6185.319
905.8820, 6258.752
907.0060, 6010.201
908.1300, 5637.657
909.2540, 5282.129
910.3780, 4808.626
911.5020, 4322.131
912.6250, 3941.581
913.7490, 3422.077
914.8720, 3048.540
915.9950, 2660.223
917.1180, 2392.228
918.2400, 2129.198
919.3630, 1917.960
920.4850, 1718.219
921.6080, 1609.890
922.7300, 1538.075
923.8520, 1415.663
924.9730, 1356.927
926.0950, 1421.593
927.2160, 1388.454
928.3380, 1468.585
929.4590, 1493.914
930.5800, 1445.250
931.7010, 1540.330
932.8210, 1533.597
933.9420, 1595.045
935.0620, 1587.968
936.1820, 1662.887
937.3020, 1739.743
938.4220, 1895.146
939.5420, 1994.909
940.6610, 2090.593
941.7810, 2319.015
942.9000, 2521.886
944.0190, 2711.894
945.1380, 3052.969
946.2570, 3473.065
947.3750, 3929.184
948.4940, 4341.321
949.6120, 4931.486
950.7300, 5365.670
951.8480, 6011.877
952.9660, 6508.105
954.0830, 7155.358
955.2010, 7751.578
956.3180, 8575.828
957.4350, 9320.893
958.5520, 10419.98
959.6690, 11434.05
960.7860, 12559.47
961.9020, 13483.75
963.0190, 14127.08
964.1350, 14272.78
965.2510, 14393.90
966.3670, 13773.46
967.4830, 13096.03
968.5980, 12260.63
969.7140, 11643.26
970.8290, 11306.91
971.9440, 11407.59
973.0590, 11891.29
974.1740, 12461.01
975.2880, 13193.76
976.4030, 14145.53
977.5170, 14706.33
978.6310, 14905.15
979.7450, 14976.99
980.8590, 14398.86
981.9730, 13290.75
983.0860, 12295.66
984.2000, 11169.60
985.3130, 10152.57
986.4260, 9125.554
987.5390, 8684.567
988.6520, 7987.603
989.7640, 7700.665
990.8770, 7301.751
991.9890, 7068.863
993.1010, 6738.008
994.2130, 6591.174
995.3250, 6582.367
996.4370, 6581.583
997.5480, 6472.826
998.6590, 6500.101
999.7710, 6396.399
1000.882, 6374.725
1001.993, 6102.074
1003.103, 5852.449
1004.214, 5336.067
1005.324, 4875.490
1006.434, 4347.011
1007.545, 3975.482
1008.655, 3419.193
1009.764, 2983.714
1010.874, 2640.749
1011.983, 2325.385
1013.093, 1892.189
1014.202, 1685.808
1015.311, 1530.451
1016.420, 1341.250
1017.528, 1274.054
1018.637, 1021.823
1019.745, 933.7207
1020.854, 913.1460
1021.962, 800.6650
1023.070, 773.3982
1024.177, 825.5071
1025.285, 792.3374
1026.392, 770.8420
1027.500, 770.9224
1028.607, 750.2886
1029.714, 833.4924
1030.821, 731.5288
1031.927, 660.5762
1033.034, 641.9031
1034.140, 499.1860
1035.246, 481.0625
1036.352, 408.9729
1037.458, 416.3730
1038.564, 391.8662
1039.670, 387.7185
1040.775, 346.8757
1041.880, 343.6973
1042.986, 374.7263
1044.090, 350.9470
1045.195, 365.5444
1046.300, 416.2136
1047.404, 371.4958
1048.509, 410.3989
1049.613, 405.6084
1050.717, 474.9885
1051.821, 527.5168
1052.925, 523.5415
1054.028, 549.0500
1055.132, 577.9714
1056.235, 545.8157
1057.338, 686.4807
1058.441, 685.2053
1059.544, 676.0684
1060.647, 696.5881
1061.749, 676.2991
1062.851, 631.6953
1063.954, 572.8193
1065.056, 536.8479
1066.158, 442.9348
1067.259, 434.4961
1068.361, 401.1523
1069.462, 340.1150
1070.564, 382.7722
1071.665, 444.4480
1072.766, 371.8542
1073.867, 434.2822
1074.967, 498.7297
1076.068, 671.4995
1077.168, 756.3760
1078.268, 890.0979
1079.368, 966.6062
1080.468, 1135.129
1081.568, 1196.416
1082.668, 1208.967
1083.767, 1311.533
1084.866, 1283.553
1085.966, 1152.309
1087.065, 984.2236
1088.163, 872.0977
1089.262, 695.0739
1090.361, 606.2200
1091.459, 520.9187
1092.557, 438.5576
1093.655, 365.1829
1094.753, 331.9100
1095.851, 284.5306
1096.949, 358.5181
1098.046, 275.4028
1099.143, 264.1674
1100.241, 234.9718
1101.338, 207.9420
1102.434, 244.0031
1103.531, 214.1232
1104.628, 243.2317
1105.724, 223.0566
1106.820, 217.8909
1107.916, 241.7799
1109.012, 191.6676
1110.108, 185.5751
1111.204, 184.6309
1112.299, 158.5087
1113.395, 160.5112
1114.490, 149.2594
1115.585, 146.3702
1116.680, 141.3536
1117.775, 119.3828
1118.869, 128.3979
1119.964, 79.86169
1121.058, 85.86157
1122.152, 20.90112
1123.246, 8.865967
1124.340, 53.80933
1125.434, 99.77246
1126.527, 40.74133
1127.620, 35.95825
1128.714, 31.93799
1129.807, 28.12524
1130.900, 46.11487
1131.992, 60.43726
1133.085, 26.43616
1134.178, 3.706299
1135.270, 14.27283
1136.362, 5.734985
1137.454, 5.250610
1138.546, 8.848267
1139.638, 13.09277
1140.729, 19.16467
1141.821, 49.51001
1142.912, 4.046143
1144.003, 11.79797
1145.094, 17.27197
1146.185, 12.84912
1147.276, 7.489502
1148.366, 6.287476
1149.456, 56.17334
1150.547, 76.17993
1151.637, 66.21387
1152.727, 25.24341
1153.816, 29.30737
1154.906, 11.31726
1155.995, 29.39270
1157.085, 20.47754
1158.174, 32.56946
1159.263, 4.326782
1160.352, 20.77795
1161.441, 1.890869
1162.529, 46.96716
1163.618, 31.97913
1164.706, 7.083252
1165.794, 57.01428
1166.882, 20.04480
1167.970, 46.82092
1169.058, 62.97729
1170.145, 35.22559
1171.232, 41.60791
1172.320, 32.40454
1173.407, 66.62305
1174.494, 22.38049
1175.580, 0.2534180
1176.667, 28.90063
1177.754, 11.74609
1178.840, 8.352295
1179.926, 13.34753
1181.012, 15.54663
1182.098, 3.797363
1183.184, 22.59424
1184.269, 15.15918
1185.355, 33.63831
1186.440, 30.67639
1187.525, 52.85254
1188.610, 19.39026
1189.695, 9.107788
1190.780, 66.38428
1191.864, 3.924561
1192.949, 29.03784
1194.033, 11.48340
1195.117, 1.009766
1196.201, 12.37671
1197.285, 7.293823
1198.369, 7.239014
1199.452, 12.67078
1200.536, 10.65063
1201.619, 11.95752
1202.702, 24.25085
1203.785, 34.53296
1204.868, 35.95667
1205.950, 2.783081
1207.033, 14.45349
1208.115, 19.67432
1209.197, 49.88123
1210.279, 54.07642
1211.361, 10.35706
1212.443, 41.52112
1213.525, 46.67310
1214.606, 19.81311
1215.687, 29.03479
1216.769, 25.38013
1217.850, 5.258057
1218.930, 26.30811
1220.011, 2.363281
1221.092, 5.566040
1222.172, 3.656128
1223.252, 2.676514
1224.333, 3.539673
1225.413, 17.37280
1226.492, 36.26318
1227.572, 42.13721
1228.652, 73.99573
1229.731, 57.84033
1230.810, 42.67029
1231.889, 13.48401
1232.968, 39.27209
1234.047, 41.04248
1235.126, 84.79553
1236.204, 76.22583
1237.283, 63.25769
1238.361, 66.96643
1239.439, 65.65979
1240.517, 51.33789
1241.595, 83.99890
1242.673, 57.64465
1243.750, 86.29602
1244.827, 67.91003
1245.905, 66.50842
1246.982, 62.09045
1248.059, 65.65588
1249.135, 77.20459
1250.212, 43.73706
1251.288, 68.24866
1252.365, 87.74316
1253.441, 10.22180
1254.517, 125.6669
1255.593, 112.0957
1256.669, 61.50830
1257.744, 97.90271
1258.820, 8.347290
1259.895, 125.6901
1260.970, 60.09863
1262.045, 112.4054
1263.120, 64.69556
1264.195, 98.96619
1265.270, 134.0013
1266.344, 103.2390
1267.418, 84.38708
1268.492, 95.59009
1269.566, 69.98193
1270.640, 66.74341
1271.714, 58.40186
1272.788, 70.46582
1273.861, 93.37207
1274.934, 78.46313
1276.007, 94.53564
1277.080, 76.45703
1278.153, 86.37964
1279.226, 126.3428
1280.299, 117.2899
1281.371, 98.68115
1282.443, 128.0298
1283.515, 90.12048
1284.587, 163.9092
1285.659, 122.9126
1286.731, 122.1790
1287.802, 109.8748
1288.874, 109.7394
1289.945, 124.8734
1291.016, 96.67493
1292.087, 76.50171
1293.158, 92.97632
1294.229, 65.53967
1295.299, 70.43323
1296.370, 50.33728
1297.440, 85.75415
1298.510, 106.0825
1299.580, 72.09302
1300.650, 54.77979
1301.720, 78.79175
1302.789, 45.61011
1303.859, 55.22986
1304.928, 57.70093
1305.997, 92.66650
1307.066, 11.23560
1308.135, 42.27209
1309.203, 47.92761
1310.272, 29.43677
1311.340, 112.8199
1312.409, 11.73218
1313.477, 29.17676
1314.545, 37.23120
1315.612, 88.40381
1316.680, 84.79419
1317.748, 50.35779
1318.815, 91.64001
1319.882, 88.32031
1320.949, 29.84741
1322.016, 56.73389
1323.083, 57.93750
1324.150, 82.46143
1325.216, 49.60791
1326.283, 17.49561
1327.349, 72.32166
1328.415, 165.8706
1329.481, 92.75012
1330.547, 97.73889
1331.613, 95.94092
1332.678, 48.14880
1333.744, 97.29651
1334.809, 115.1250
1335.874, 100.8484
1336.939, 101.8650
1338.004, 100.9595
1339.068, 57.04102
1340.133, 94.36035
1341.197, 115.4821
1342.262, 91.52380
1343.326, 56.11230
1344.390, 79.04199
1345.453, 82.77246
1346.517, 119.6136
1347.581, 97.85120
1348.644, 69.37402
1349.707, 98.00928
1350.770, 122.1053
1351.833, 49.11096
1352.896, 107.0151
1353.959, 83.02661
1355.022, 71.67090
1356.084, 84.41797
1357.146, 106.2844
1358.208, 92.10986
1359.270, 81.76831
1360.332, 89.37158
1361.394, 82.85242
1362.455, 78.36621
1363.517, 86.16077
1364.578, 89.81372
1365.639, 93.75342
1366.700, 101.5413
1367.761, 112.2445
1368.822, 101.7974
1369.883, 101.9656
1370.943, 63.16040
1372.003, 86.86694
1373.063, 82.62390
1374.123, 77.23608
1375.183, 91.79932
1376.243, 92.37439
1377.303, 117.9861
1378.362, 82.08008
1379.421, 125.6199
1380.481, 94.23145
1381.540, 90.86121
1382.598, 73.46826
1383.657, 78.06628
1384.716, 102.5038
1385.774, 48.13574
1386.833, 62.54150
1387.891, 42.10278
1388.949, 87.32605
1390.007, 87.86890
1391.065, 102.2141
1392.122, 111.3629
1393.180, 62.24402
1394.237, 96.81152
1395.294, 96.19873
1396.351, 55.61926
1397.408, 66.86316
1398.465, 61.46008
1399.522, 73.59985
1400.578, 56.79993
1401.635, 75.64075
1402.691, 101.4414
1403.747, 101.7927
1404.803, 80.01050
1405.859, 82.30835
1406.914, 30.70898
1407.970, 38.60938
1409.025, 27.50012
1410.081, 38.90771
1411.136, 24.24963
1412.191, 38.73840
1413.245, 55.13147
1414.300, 62.51978
1415.355, 115.9067
1416.409, 88.28467
1417.463, 42.65747
1418.518, 34.98621
1419.572, 80.28113
1420.625, 62.65332
1421.679, 67.77905
1422.733, 68.98352
1423.786, 70.92102
1424.840, 76.21973
1425.893, 42.63184
1426.946, 47.89722
1427.999, 65.99976
1429.051, 48.29187
1430.104, 88.33374
1431.157, 48.49548
1432.209, 48.67554
1433.261, 51.03650
1434.313, 29.80298
1435.365, 109.7894
1436.417, 75.96509
1437.468, 92.64575
1438.520, 57.76355
1439.571, 61.53406
1440.623, 68.97229
1441.674, 72.43384
1442.725, 51.68579
1443.775, 8.712402
1444.826, 80.98413
1445.877, 42.30725
1446.927, 68.02136
1447.977, 48.49451
1449.028, 53.95752
1450.078, 57.32263
1451.127, 47.68555
1452.177, 62.12195
1453.227, 54.43896
1454.276, 64.85364
1455.325, 95.14441
1456.375, 16.54700
1457.424, 33.89954
1458.473, 30.30859
1459.521, 42.62390
1460.570, 49.07153
1461.618, 50.65320
1462.667, 10.94373
1463.715, 60.38257
1464.763, 74.81763
1465.811, 87.24316
1466.859, 23.66016
1467.906, 53.07153
1468.954, 89.44690
1470.001, 20.84277
1471.049, 30.23352
1472.096, 13.62146
1473.143, 9.296753
1474.190, 16.58984
1475.236, 11.19165
1476.283, 13.12109
1477.329, 56.41956
1478.376, 61.83337
1479.422, 89.24475
1480.468, 40.65271
1481.514, 65.03638
1482.559, 43.44360
1483.605, 41.84607
1484.650, 39.25903
1485.696, 33.67493
1486.741, 79.80151
1487.786, 39.90747
1488.831, 80.97546
1489.876, 16.37659
1490.920, 55.77698
1491.965, 20.96533
1493.009, 43.36414
1494.054, 71.76746
1495.098, 47.17932
1496.142, 27.49976
1497.185, 72.89795
1498.229, 8.309326
1499.273, 58.72852
1500.316, 39.01404
1501.359, 44.46753
1502.403, 103.9462
1503.446, 53.45654
1504.489, 56.58069
1505.531, 62.08350
1506.574, 70.61987
1507.616, 60.15918
1508.659, 46.70215
1509.701, 13.25037
1510.743, 22.56152
1511.785, 25.93567
1512.827, 81.49280
1513.868, 98.71655
1514.910, 111.1144
1515.951, 16.66211
1516.993, 114.2244
1518.034, 60.49060
1519.075, 18.11401
1520.116, 65.66333
1521.156, 97.77979
1522.197, 24.18774
1523.237, 8.405762
1524.278, 1.998657
1525.318, 46.36035
1526.358, 86.76990
1527.398, 83.91223
1528.438, 79.10999
1529.477, 79.51965
1530.517, 85.80383
1531.556, 50.73865
1532.596, 39.12463
1533.635, 75.50488
1534.674, 40.87988
1535.712, 73.24817
1536.751, 10.59949
1537.790, 96.26208
1538.828, 44.37256
1539.866, 63.65027
1540.905, 34.48901
1541.943, 75.36804
1542.981, 74.89111
1544.018, 17.46375
1545.056, 16.88477
1546.094, 77.21313
1547.131, 60.54419
1548.168, 55.87939
1549.205, 44.21326
1550.242, 23.52942
1551.279, 79.99036
1552.316, 98.27405
1553.352, 73.60205
1554.389, 137.3047
1555.425, 124.0674
1556.461, 110.6576
1557.497, 67.45862
1558.533, 2.848145
1559.569, 88.00195
1560.605, 27.23389
1561.640, 10.15173
1562.675, 28.46155
1563.711, 0.0000000E+00
##END=



