##NAMES=Axinite-(Fe)
##RRUFFID=R060194
##IDEAL CHEMISTRY=Ca_4_Fe^2+^_2_Al_4_[B_2_Si_8_O_30_](OH)_2_
##LOCALITY=near Dalbandi, Baluchistan Province, Pakistan
##OWNER=RRUFF
##SOURCE=Herbert Obodda
##DESCRIPTION=Brown transparent wedge-shaped single crystal
##STATUS=The identification of this mineral has been confirmed by X-ray diffraction and chemical analysis
##URL=rruff.info/R060194
##MEASURED CHEMISTRY=Ca_2.00_(Fe^2+^_0.66_Mg_0.30_Mn_0.04_)Al_2.00_BSi_4.00_O_15_(OH)
##PIN_ID=L00975
##ORIENTATION=Laser parallel to a* (1 0 0). Fiducial mark perpendicular to laser is parallel to b [0 1 0]
53.91000, 0.0000000E+00
55.14900, 35.40149
56.38700, 78.18204
57.62600, 99.78976
58.86400, 144.9782
60.10300, 191.8330
61.34100, 230.8796
62.57900, 247.5700
63.81700, 247.7734
65.05400, 250.3405
66.29200, 189.7447
67.52900, 143.6236
68.76700, 111.9385
70.00400, 58.36133
71.24100, 30.79565
72.47700, 2.068054
73.71400, 11.23560
74.95100, 44.31836
76.18700, 71.50769
77.42300, 64.90106
78.65900, 25.58655
79.89500, 73.64417
81.13100, 59.14624
82.36700, 12.15771
83.60200, 125.2628
84.83700, 282.0627
86.07200, 441.1938
87.30800, 581.6124
88.54200, 703.2784
89.77700, 940.1550
91.01200, 1207.207
92.24600, 1530.372
93.48000, 2059.572
94.71400, 2594.736
95.94800, 2938.800
97.18200, 3275.713
98.41600, 3232.452
99.64900, 3332.004
100.8830, 3270.343
102.1160, 3430.447
103.3490, 3589.294
104.5820, 3969.872
105.8150, 4672.163
107.0470, 5723.153
108.2800, 7472.833
109.5120, 10042.19
110.7440, 12421.21
111.9760, 12135.88
113.2080, 10881.20
114.4400, 9663.161
115.6710, 7883.748
116.9030, 6458.951
118.1340, 5472.766
119.3650, 4602.184
120.5960, 4110.197
121.8270, 3893.799
123.0580, 3810.982
124.2880, 3711.740
125.5190, 3735.068
126.7490, 3565.954
127.9790, 3115.311
129.2090, 2757.873
130.4390, 2361.620
131.6680, 2027.535
132.8980, 1681.606
134.1270, 1322.828
135.3560, 1148.189
136.5850, 1081.706
137.8140, 1044.398
139.0430, 1215.278
140.2710, 1422.448
141.5000, 2005.130
142.7280, 2189.287
143.9560, 2517.799
145.1840, 2814.639
146.4120, 2920.791
147.6390, 3038.257
148.8670, 3375.043
150.0940, 3678.160
151.3210, 4209.614
152.5490, 4835.404
153.7750, 5593.536
155.0020, 6072.009
156.2290, 6647.823
157.4550, 7190.979
158.6810, 7591.475
159.9080, 7742.310
161.1340, 7478.484
162.3590, 7306.000
163.5850, 7307.851
164.8110, 7672.036
166.0360, 8304.554
167.2610, 9440.407
168.4860, 11219.59
169.7110, 14034.10
170.9360, 17211.94
172.1610, 20147.10
173.3850, 21056.59
174.6100, 20096.40
175.8340, 17849.53
177.0580, 14816.98
178.2820, 11463.75
179.5050, 8722.827
180.7290, 6730.220
181.9520, 4933.924
183.1760, 3587.935
184.3990, 2658.252
185.6220, 1987.874
186.8450, 1671.797
188.0670, 1444.020
189.2900, 1381.553
190.5120, 1457.384
191.7340, 1795.508
192.9560, 2435.921
194.1780, 3543.621
195.4000, 4903.605
196.6220, 5646.872
197.8430, 5801.417
199.0640, 5729.240
200.2860, 5513.338
201.5070, 5377.072
202.7270, 5574.650
203.9480, 6361.055
205.1690, 7190.247
206.3890, 8174.324
207.6090, 9480.264
208.8290, 10727.05
210.0490, 12418.81
211.2690, 14086.67
212.4890, 15334.56
213.7080, 16117.23
214.9280, 16154.56
216.1470, 15924.79
217.3660, 14892.94
218.5850, 13628.83
219.8030, 12471.85
221.0220, 10913.98
222.2400, 9560.754
223.4590, 8086.391
224.6770, 6817.572
225.8950, 5692.697
227.1120, 4680.095
228.3300, 3773.109
229.5480, 3096.240
230.7650, 2576.995
231.9820, 2043.296
233.1990, 1716.316
234.4160, 1432.672
235.6330, 1255.684
236.8490, 1199.893
238.0660, 1219.397
239.2820, 1428.221
240.4980, 1649.360
241.7140, 1975.827
242.9300, 2387.663
244.1460, 2846.853
245.3610, 3091.374
246.5770, 3777.220
247.7920, 4182.346
249.0070, 4781.750
250.2220, 5167.397
251.4370, 5577.283
252.6510, 5996.402
253.8660, 6493.757
255.0800, 6647.340
256.2940, 7095.150
257.5080, 7056.184
258.7220, 6880.440
259.9360, 7188.916
261.1490, 7145.604
262.3630, 6888.509
263.5760, 6712.625
264.7890, 7129.946
266.0020, 7815.471
267.2150, 8672.201
268.4270, 9675.134
269.6400, 10861.26
270.8520, 11942.58
272.0640, 13229.10
273.2760, 14243.80
274.4880, 14883.70
275.7000, 14981.79
276.9120, 14783.05
278.1230, 14122.51
279.3340, 13325.16
280.5450, 12019.98
281.7560, 10843.00
282.9670, 9528.196
284.1780, 7993.580
285.3880, 6662.146
286.5980, 5666.895
287.8090, 5231.824
289.0190, 5017.934
290.2290, 5014.220
291.4380, 5926.679
292.6480, 6711.314
293.8570, 8144.121
295.0670, 9736.101
296.2760, 11594.25
297.4850, 13415.57
298.6930, 15331.05
299.9020, 16896.70
301.1110, 18750.52
302.3190, 19086.20
303.5270, 20404.64
304.7350, 19196.94
305.9430, 18979.40
307.1510, 18511.02
308.3580, 17716.79
309.5660, 16851.72
310.7730, 15269.80
311.9800, 13562.03
313.1870, 12164.41
314.3940, 11135.94
315.6010, 10652.62
316.8070, 10789.45
318.0130, 11384.42
319.2200, 12669.53
320.4260, 13797.78
321.6310, 14182.42
322.8370, 13684.02
324.0430, 12301.69
325.2480, 10441.49
326.4540, 8082.433
327.6590, 6355.506
328.8640, 4868.711
330.0680, 3710.047
331.2730, 3104.512
332.4780, 2798.104
333.6820, 2544.824
334.8860, 2405.668
336.0900, 2745.636
337.2940, 2934.727
338.4980, 3379.937
339.7010, 4150.266
340.9050, 5217.716
342.1080, 6795.282
343.3110, 8558.963
344.5140, 10801.76
345.7170, 12908.67
346.9200, 14241.73
348.1220, 14657.95
349.3240, 14564.32
350.5270, 13783.85
351.7290, 13099.54
352.9310, 12683.91
354.1320, 12140.42
355.3340, 11303.10
356.5350, 10008.31
357.7370, 8303.732
358.9380, 6491.808
360.1390, 4967.805
361.3400, 3533.019
362.5400, 2450.572
363.7410, 1434.113
364.9410, 812.2505
366.1410, 372.9160
367.3410, 137.8262
368.5410, 102.3291
369.7410, 279.7417
370.9400, 380.1592
372.1400, 454.1621
373.3390, 263.1479
374.5380, 191.0698
375.7370, 100.9131
376.9360, 60.65625
378.1350, 63.28613
379.3330, 4.204590
380.5310, 177.8550
381.7300, 403.0767
382.9280, 850.8857
384.1260, 1482.238
385.3230, 2410.357
386.5210, 3518.507
387.7180, 5099.987
388.9160, 6928.924
390.1130, 9717.071
391.3100, 10348.30
392.5060, 11354.96
393.7030, 11808.55
394.9000, 12266.23
396.0960, 12155.98
397.2920, 11300.82
398.4880, 9998.726
399.6840, 8628.709
400.8800, 7192.771
402.0750, 5832.904
403.2710, 4635.106
404.4660, 3900.381
405.6610, 3275.726
406.8560, 2687.141
408.0510, 2375.621
409.2450, 2130.168
410.4400, 2067.781
411.6340, 2089.460
412.8280, 2196.203
414.0220, 2759.009
415.2160, 3273.877
416.4100, 4217.808
417.6030, 5624.800
418.7970, 7030.852
419.9900, 8219.964
421.1830, 8692.133
422.3760, 9095.363
423.5690, 9366.645
424.7610, 10223.98
425.9540, 11385.38
427.1460, 12924.83
428.3380, 14888.33
429.5300, 17273.89
430.7220, 19550.49
431.9140, 20926.15
433.1050, 21714.85
434.2970, 20911.61
435.4880, 18981.42
436.6790, 16266.27
437.8700, 13497.17
439.0610, 10804.11
440.2510, 8381.100
441.4420, 6807.129
442.6320, 5918.203
443.8220, 5290.319
445.0120, 5218.475
446.2020, 5444.671
447.3910, 5297.907
448.5810, 4775.180
449.7700, 4109.490
450.9600, 3156.835
452.1490, 2287.216
453.3370, 1633.632
454.5260, 1190.081
455.7150, 758.5625
456.9030, 658.0752
458.0910, 419.6187
459.2800, 336.1924
460.4670, 293.7944
461.6550, 172.4248
462.8430, 64.08252
464.0300, 26.76611
465.2180, 37.46631
466.4050, 94.91406
467.5920, 91.92578
468.7790, 384.6904
469.9650, 499.4775
471.1520, 790.2856
472.3380, 925.1147
473.5250, 980.9634
474.7110, 972.8306
475.8970, 758.7163
477.0820, 602.6196
478.2680, 391.5391
479.4540, 410.4751
480.6390, 282.4258
481.8240, 503.3911
483.0090, 746.3691
484.1940, 1117.361
485.3780, 1729.364
486.5630, 2171.379
487.7470, 2512.404
488.9320, 2364.439
490.1160, 1869.484
491.3000, 1370.536
492.4830, 709.5952
493.6670, 314.5913
494.8500, 109.2456
496.0340, 309.7114
497.2170, 442.8091
498.4000, 594.3242
499.5820, 575.1968
500.7650, 579.4180
501.9480, 587.9937
503.1300, 421.9307
504.3120, 371.1445
505.4940, 331.6123
506.6760, 234.3164
507.8580, 170.2124
509.0390, 84.26953
510.2210, 78.44775
511.4020, 128.0308
512.5830, 166.5225
513.7640, 294.8540
514.9450, 238.5400
516.1250, 353.3442
517.3060, 362.0015
518.4860, 395.5952
519.6660, 298.0298
520.8460, 207.3940
522.0260, 204.0518
523.2060, 99.68164
524.3850, 26.72168
525.5650, 32.22461
526.7440, 92.83203
527.9230, 277.5747
529.1020, 228.5449
530.2810, 147.7197
531.4590, 131.0601
532.6380, 26.43896
533.8160, 36.85498
534.9940, 268.1914
536.1720, 506.5098
537.3500, 745.8105
538.5270, 1159.094
539.7050, 1522.358
540.8820, 2092.604
542.0590, 2660.831
543.2360, 3537.039
544.4130, 4386.226
545.5900, 5137.394
546.7660, 5981.540
547.9430, 6479.675
549.1190, 6599.817
550.2950, 6423.991
551.4710, 5776.206
552.6470, 5106.448
553.8220, 4542.743
554.9980, 3966.068
556.1730, 3637.420
557.3480, 3411.810
558.5230, 3634.235
559.6980, 3865.646
560.8730, 4503.062
562.0470, 5038.500
563.2220, 5502.914
564.3960, 5636.321
565.5700, 5293.735
566.7440, 4887.168
567.9170, 4418.616
569.0910, 4028.066
570.2640, 3802.540
571.4380, 3835.021
572.6110, 3906.511
573.7840, 4061.009
574.9570, 4277.511
576.1290, 4380.006
577.3020, 4309.486
578.4740, 4240.943
579.6460, 4408.370
580.8180, 4332.769
581.9900, 4289.135
583.1620, 4488.469
584.3330, 4954.773
585.5040, 5418.043
586.6760, 6202.281
587.8470, 7069.488
589.0180, 7949.661
590.1880, 8892.801
591.3590, 9195.902
592.5290, 9173.976
593.7000, 8434.017
594.8700, 7416.020
596.0400, 6291.989
597.2090, 5089.923
598.3790, 4022.824
599.5490, 3118.688
600.7180, 2526.518
601.8870, 2105.312
603.0560, 1785.070
604.2250, 1778.792
605.3940, 1757.234
606.5620, 1745.823
607.7300, 1964.437
608.8990, 2030.014
610.0670, 2470.554
611.2350, 2610.059
612.4020, 2864.524
613.5700, 3069.954
614.7370, 3097.347
615.9050, 3028.701
617.0720, 3080.020
618.2390, 3136.299
619.4060, 2966.541
620.5720, 3100.744
621.7390, 2961.911
622.9050, 2914.038
624.0710, 2510.127
625.2370, 2106.180
626.4030, 1761.192
627.5690, 1471.167
628.7340, 1061.103
629.9000, 746.9990
631.0650, 636.8569
632.2300, 501.6763
633.3950, 368.4561
634.5600, 301.1875
635.7240, 388.3535
636.8890, 408.4971
638.0530, 574.5791
639.2170, 584.2510
640.3810, 738.8384
641.5450, 892.8896
642.7080, 1151.146
643.8720, 1474.308
645.0350, 1699.250
646.1980, 1846.325
647.3610, 1758.923
648.5240, 1674.107
649.6870, 1442.163
650.8490, 1278.401
652.0120, 921.0020
653.1740, 673.6846
654.3360, 395.0190
655.4980, 232.3882
656.6600, 127.4097
657.8210, 48.92822
658.9830, 9.801270
660.1440, 43.68848
661.3050, 58.01318
662.4660, 269.7734
663.6270, 339.5083
664.7870, 471.7051
665.9480, 845.4409
667.1080, 1085.493
668.2680, 1751.592
669.4280, 2212.443
670.5880, 3038.914
671.7480, 3946.252
672.9070, 5170.683
674.0670, 6414.563
675.2260, 8138.677
676.3850, 9663.782
677.5440, 10998.88
678.7030, 11944.97
679.8610, 12063.05
681.0200, 11234.12
682.1780, 10076.19
683.3360, 8489.244
684.4940, 7019.295
685.6520, 5624.339
686.8090, 4517.650
687.9670, 3590.952
689.1240, 3045.713
690.2810, 2560.052
691.4380, 2366.141
692.5950, 2334.844
693.7520, 2312.738
694.9080, 2405.013
696.0650, 2571.976
697.2210, 2960.967
698.3770, 3431.961
699.5330, 4136.087
700.6880, 4759.292
701.8440, 5818.338
702.9990, 7151.580
704.1550, 8993.733
705.3100, 11013.20
706.4650, 13830.19
707.6190, 17165.34
708.7740, 21197.34
709.9290, 26223.23
711.0830, 31793.75
712.2370, 37928.72
713.3910, 43941.64
714.5450, 48807.91
715.6980, 57023.35
716.8520, 55466.79
718.0050, 50968.54
719.1580, 43968.21
720.3110, 37428.87
721.4640, 31198.51
722.6170, 25785.14
723.7700, 20779.75
724.9220, 16761.34
726.0740, 13562.92
727.2260, 11238.48
728.3780, 9261.032
729.5300, 7886.568
730.6810, 6515.089
731.8330, 5607.597
732.9840, 4814.090
734.1350, 4145.571
735.2860, 3584.037
736.4370, 3161.491
737.5880, 2775.934
738.7380, 2471.362
739.8880, 2188.614
741.0390, 1924.185
742.1890, 1772.579
743.3380, 1642.961
744.4880, 1526.358
745.6380, 1363.707
746.7870, 1333.065
747.9360, 1215.414
749.0850, 1099.752
750.2340, 1228.082
751.3830, 1306.402
752.5310, 1422.713
753.6800, 1467.016
754.8280, 1568.310
755.9760, 1751.596
757.1240, 2065.875
758.2720, 2394.146
759.4190, 2623.410
760.5670, 3110.668
761.7140, 3523.919
762.8610, 4166.163
764.0080, 4688.403
765.1550, 5222.637
766.3020, 5838.867
767.4480, 6308.090
768.5950, 6594.310
769.7410, 6735.526
770.8870, 6747.738
772.0330, 6377.015
773.1780, 5761.128
774.3240, 5202.817
775.4690, 4464.034
776.6140, 3873.530
777.7590, 3214.204
778.9040, 2788.052
780.0490, 2139.075
781.1940, 1985.279
782.3380, 1512.619
783.4820, 1174.084
784.6260, 1020.667
785.7700, 722.3423
786.9140, 684.0967
788.0580, 462.9102
789.2010, 389.7822
790.3450, 292.6660
791.4880, 131.5566
792.6310, 100.4497
793.7730, 23.97803
794.9160, 58.17676
796.0590, 32.17285
797.2010, 16.80664
798.3430, 8.569824
799.4850, 0.7290040
800.6270, 8.069824
801.7690, 121.8706
802.9100, 212.7192
804.0520, 1374.617
805.1930, 2055.580
806.3340, 1584.280
807.4750, 614.8281
808.6160, 778.0820
809.7560, 979.4136
810.8970, 1045.784
812.0370, 1224.191
813.1770, 1282.604
814.3170, 1330.024
815.4570, 1200.449
816.5960, 1074.881
817.7360, 827.3193
818.8750, 652.7637
820.0140, 495.2148
821.1530, 291.6733
822.2920, 223.1392
823.4310, 1.387695
824.5690, 86.92529
825.7070, 180.5146
826.8460, 223.2017
827.9840, 170.0083
829.1220, 261.9072
830.2590, 184.9448
831.3970, 175.0811
832.5340, 220.3101
833.6710, 205.6558
834.8080, 19.10889
835.9450, 90.57617
837.0820, 161.0928
838.2190, 19.30811
839.3550, 61.28467
840.4910, 94.90967
841.6270, 169.5840
842.7630, 145.3433
843.8990, 98.17334
845.0350, 182.0518
846.1700, 130.0190
847.3060, 125.0488
848.4410, 134.1377
849.5760, 117.2900
850.7100, 73.49561
851.8450, 43.73340
852.9800, 10.98730
854.1140, 6.649414
855.2480, 25.51562
856.3820, 51.28711
857.5160, 60.07324
858.6500, 123.8740
859.7830, 149.6909
860.9170, 199.5229
862.0500, 275.3716
863.1830, 299.2358
864.3160, 351.7661
865.4480, 409.0146
866.5810, 448.9297
867.7130, 563.8618
868.8460, 659.8125
869.9780, 750.7798
871.1100, 675.7661
872.2410, 770.7705
873.3730, 729.7939
874.5050, 722.8379
875.6360, 847.9009
876.7670, 877.9849
877.8980, 834.0918
879.0290, 957.2202
880.1590, 937.3750
881.2900, 995.5527
882.4200, 905.7515
883.5500, 1041.970
884.6800, 1055.227
885.8100, 1012.503
886.9400, 1049.802
888.0690, 1013.123
889.1990, 1121.466
890.3280, 1229.831
891.4570, 1364.221
892.5860, 1563.643
893.7140, 1704.100
894.8430, 1970.593
895.9710, 2265.089
897.1000, 2601.681
898.2280, 3006.267
899.3560, 3432.878
900.4830, 3937.514
901.6110, 4263.173
902.7380, 4808.858
903.8660, 5428.566
904.9930, 5869.309
906.1200, 6363.087
907.2460, 6506.907
908.3730, 6693.754
909.5000, 6395.644
910.6260, 5924.562
911.7520, 5211.507
912.8780, 4600.486
914.0040, 4037.488
915.1290, 3369.531
916.2550, 2807.606
917.3800, 2400.726
918.5050, 2085.869
919.6300, 1666.034
920.7550, 1534.235
921.8800, 1400.481
923.0040, 1246.786
924.1290, 1216.120
925.2530, 1154.476
926.3770, 1073.854
927.5010, 1082.252
928.6250, 1154.671
929.7480, 1219.466
930.8720, 1293.783
931.9950, 1342.755
933.1180, 1372.716
934.2410, 1507.236
935.3640, 1406.275
936.4860, 1591.884
937.6090, 1504.556
938.7310, 1567.251
939.8530, 1551.980
940.9750, 1598.731
942.0970, 1679.519
943.2180, 1803.328
944.3400, 1991.158
945.4610, 2172.028
946.5820, 2328.927
947.7030, 2647.861
948.8240, 2868.820
949.9450, 3386.800
951.0650, 3732.817
952.1860, 4301.854
953.3060, 4908.917
954.4260, 5564.009
955.5460, 6365.129
956.6650, 7352.301
957.7850, 8766.507
958.9040, 10257.47
960.0230, 11927.46
961.1420, 14408.02
962.2610, 16541.03
963.3800, 19300.31
964.4990, 21561.00
965.6170, 23323.52
966.7350, 24173.18
967.8530, 25200.19
968.9710, 24110.69
970.0890, 22780.24
971.2070, 21121.66
972.3240, 19547.04
973.4410, 18780.59
974.5580, 18086.97
975.6750, 18148.46
976.7920, 19128.65
977.9090, 20172.35
979.0250, 21495.89
980.1410, 22957.62
981.2580, 23714.47
982.3740, 24424.71
983.4890, 23902.52
984.6050, 22833.40
985.7200, 21274.95
986.8360, 19742.35
987.9510, 18136.77
989.0660, 16553.90
990.1810, 15540.12
991.2950, 14363.39
992.4100, 13963.70
993.5240, 13558.05
994.6390, 13257.44
995.7530, 13149.86
996.8660, 13294.33
997.9800, 13525.84
999.0940, 13787.68
1000.207, 14408.97
1001.320, 14565.59
1002.433, 15216.25
1003.546, 15609.94
1004.659, 15306.68
1005.772, 15093.50
1006.884, 14641.31
1007.996, 13847.30
1009.108, 12727.22
1010.220, 11810.32
1011.332, 10464.88
1012.444, 9306.055
1013.555, 8138.240
1014.666, 7135.845
1015.777, 6221.556
1016.888, 5367.064
1017.999, 4694.592
1019.110, 4033.794
1020.220, 3534.028
1021.331, 3282.334
1022.441, 2849.636
1023.551, 2716.972
1024.661, 2487.691
1025.770, 2499.021
1026.880, 2491.275
1027.989, 2566.306
1029.098, 2576.426
1030.207, 2811.256
1031.316, 2815.109
1032.425, 3007.202
1033.533, 2990.835
1034.642, 3145.501
1035.750, 3210.200
1036.858, 3201.931
1037.966, 3411.473
1039.073, 3423.798
1040.181, 3586.349
1041.288, 3610.232
1042.396, 3903.835
1043.503, 3985.938
1044.610, 4133.918
1045.716, 4150.654
1046.823, 4069.700
1047.929, 4148.055
1049.036, 4190.170
1050.142, 4313.109
1051.248, 4685.682
1052.353, 4992.890
1053.459, 5427.132
1054.564, 5747.891
1055.670, 6054.867
1056.775, 6322.845
1057.880, 6455.627
1058.985, 6685.818
1060.089, 6558.225
1061.194, 6561.656
1062.298, 6422.116
1063.402, 5934.604
1064.506, 5552.612
1065.610, 4992.818
1066.713, 4441.653
1067.817, 4139.342
1068.920, 3544.642
1070.023, 3124.118
1071.126, 2861.954
1072.229, 2712.041
1073.332, 2690.806
1074.435, 2734.660
1075.537, 2925.468
1076.639, 3100.333
1077.741, 3497.341
1078.843, 4147.781
1079.945, 4705.666
1081.046, 5802.335
1082.148, 7393.268
1083.249, 9077.688
1084.350, 9465.667
1085.451, 10355.93
1086.551, 9933.892
1087.652, 9730.760
1088.752, 9055.158
1089.853, 8162.125
1090.953, 6986.966
1092.053, 5908.820
1093.152, 5208.048
1094.252, 4385.734
1095.351, 3791.756
1096.451, 3290.238
1097.550, 2901.581
1098.649, 2537.407
1099.748, 2332.336
1100.846, 2159.852
1101.945, 2103.808
1103.043, 1914.813
1104.141, 1763.473
1105.239, 1681.974
1106.337, 1606.208
1107.434, 1532.404
1108.532, 1453.701
1109.629, 1342.085
1110.726, 1289.163
1111.823, 1180.446
1112.920, 1068.815
1114.017, 980.1689
1115.113, 866.5439
1116.210, 788.9668
1117.306, 708.6045
1118.402, 637.4761
1119.498, 572.5034
1120.593, 530.2861
1121.689, 478.7817
1122.784, 449.9062
1123.879, 382.4932
1124.974, 359.9863
1126.069, 277.0264
1127.164, 201.6060
1128.259, 247.0791
1129.353, 167.3994
1130.447, 164.1265
1131.541, 128.8584
1132.635, 136.4990
1133.729, 74.96631
1134.822, 122.7134
1135.916, 92.46460
1137.009, 2.530029
1138.102, 91.44727
1139.195, 10.88013
1140.288, 1.158936
1141.380, 12.59180
1142.473, 32.11279
1143.565, 12.64624
1144.657, 48.93457
1145.749, 28.41235
1146.841, 27.03149
1147.932, 23.46362
1149.024, 96.03271
1150.115, 16.95996
1151.206, 22.36523
1152.297, 0.2314450
1153.388, 73.16748
1154.479, 19.72729
1155.569, 16.73853
1156.659, 59.19336
1157.750, 76.61328
1158.839, 70.48999
1159.929, 70.60083
1161.019, 41.23730
1162.108, 11.77222
1163.198, 18.53223
1164.287, 12.55054
1165.376, 10.07104
1166.465, 22.77734
1167.553, 7.263916
1168.642, 45.99194
1169.730, 57.90527
1170.818, 60.02759
1171.906, 8.196777
1172.994, 18.00098
1174.082, 2.377197
1175.170, 16.66333
1176.257, 36.25098
1177.344, 60.45898
1178.431, 58.37891
1179.518, 36.85352
1180.605, 80.01953
1181.691, 5.431885
1182.778, 30.35278
1183.864, 47.17896
1184.950, 85.56323
1186.036, 135.0864
1187.122, 21.99438
1188.207, 2.805176
1189.292, 14.79272
1190.378, 13.39282
1191.463, 28.10571
1192.548, 20.10449
1193.632, 32.98975
1194.717, 4.571289
1195.801, 12.70093
1196.886, 20.99536
1197.970, 1.026123
1199.054, 9.137695
1200.137, 5.761230
1201.221, 25.37451
1202.305, 17.08423
1203.388, 134.2124
1204.471, 26.47583
1205.554, 63.75537
1206.637, 50.96802
1207.719, 40.65601
1208.802, 1.612793
1209.884, 20.03296
1210.966, 19.18115
1212.048, 103.3838
1213.130, 24.61060
1214.212, 125.3579
1215.293, 40.55933
1216.374, 2.468750
1217.456, 5.338379
1218.536, 65.70728
1219.617, 9.845215
1220.698, 9.860596
1221.778, 33.52734
1222.859, 25.81128
1223.939, 18.76709
1225.019, 46.30884
1226.099, 22.17822
1227.178, 72.30908
1228.258, 63.76074
1229.337, 40.82837
1230.417, 41.50830
1231.496, 53.19604
1232.574, 33.01953
1233.653, 45.19727
1234.732, 54.34009
1235.810, 33.50073
1236.888, 81.57080
1237.966, 61.61035
1239.044, 101.6167
1240.122, 47.59326
1241.199, 101.5325
1242.277, 100.4412
1243.354, 161.3186
1244.431, 96.17310
1245.508, 120.4900
1246.585, 101.7854
1247.661, 135.5425
1248.738, 133.6975
1249.814, 92.96216
1250.890, 141.6213
1251.966, 95.24854
1253.042, 88.84131
1254.117, 33.39868
1255.193, 82.90649
1256.268, 138.3779
1257.343, 36.81665
1258.418, 73.20581
1259.493, 120.5552
1260.567, 121.8721
1261.642, 137.8000
1262.716, 187.4751
1263.790, 125.6902
1264.864, 126.8696
1265.938, 101.0144
1267.011, 104.4883
1268.085, 143.1370
1269.158, 136.1514
1270.231, 171.1069
1271.304, 193.0327
1272.377, 203.3542
1273.450, 140.0603
1274.522, 179.8115
1275.594, 205.1118
1276.666, 81.92798
1277.738, 185.8008
1278.810, 104.1877
1279.882, 220.9653
1280.953, 204.7268
1282.025, 204.3010
1283.096, 164.9756
1284.167, 171.5198
1285.238, 167.6799
1286.308, 153.3774
1287.379, 203.9998
1288.449, 126.8445
1289.519, 178.5952
1290.589, 149.6370
1291.659, 246.6526
1292.729, 177.4255
1293.798, 189.6565
1294.868, 115.8530
1295.937, 141.0122
1297.006, 110.1353
1298.075, 45.44067
1299.143, 91.95532
1300.212, 3.764160
1301.280, 93.16333
1302.348, 106.3650
1303.416, 77.06201
1304.484, 74.87109
1305.552, 94.91821
1306.620, 68.64673
1307.687, 104.0581
1308.754, 77.70093
1309.821, 86.51367
1310.888, 34.68677
1311.955, 44.21021
1313.021, 77.68896
1314.088, 78.64087
1315.154, 100.3689
1316.220, 144.0864
1317.286, 106.1838
1318.352, 208.4839
1319.417, 173.7539
1320.483, 78.99243
1321.548, 136.1941
1322.613, 176.3638
1323.678, 136.0061
1324.743, 132.4612
1325.807, 87.28882
1326.872, 92.96216
1327.936, 86.62573
1329.000, 120.8137
1330.064, 133.6340
1331.128, 189.1941
1332.191, 173.0659
1333.255, 208.8403
1334.318, 188.6516
1335.381, 135.3972
1336.444, 143.9912
1337.507, 114.1443
1338.569, 133.8445
1339.632, 129.6362
1340.694, 188.3857
1341.756, 165.5234
1342.818, 105.1028
1343.880, 182.3735
1344.941, 220.9426
1346.003, 136.5964
1347.064, 134.7119
1348.125, 183.2476
1349.186, 164.9014
1350.247, 150.5400
1351.308, 193.8235
1352.368, 154.6902
1353.428, 166.4968
1354.489, 139.8413
1355.549, 141.8838
1356.608, 144.8870
1357.668, 140.7976
1358.727, 236.4111
1359.787, 151.4597
1360.846, 233.3665
1361.905, 243.6123
1362.964, 122.0752
1364.022, 174.8350
1365.081, 268.5747
1366.139, 190.0486
1367.197, 166.8743
1368.255, 186.9434
1369.313, 201.8174
1370.371, 167.5144
1371.428, 212.9521
1372.486, 204.5359
1373.543, 232.2466
1374.600, 223.8008
1375.657, 229.5110
1376.713, 214.1821
1377.770, 227.6196
1378.826, 252.3052
1379.882, 240.7661
1380.938, 192.1160
1381.994, 206.8765
1383.050, 196.5188
1384.106, 206.7422
1385.161, 211.4211
1386.216, 251.2483
1387.271, 270.0364
1388.326, 189.3457
1389.381, 103.6909
1390.435, 144.1931
1391.490, 137.3997
1392.544, 139.6814
1393.598, 171.6157
1394.652, 213.5425
1395.705, 86.75684
1396.759, 196.9045
1397.812, 82.18896
1398.866, 124.5430
1399.919, 134.8884
1400.972, 102.0410
1402.024, 109.3862
1403.077, 108.6909
1404.129, 83.98608
1405.181, 104.1887
1406.233, 87.86768
1407.285, 83.11450
1408.337, 145.3447
1409.389, 86.55859
1410.440, 159.5911
1411.491, 145.6309
1412.542, 71.59351
1413.593, 151.5149
1414.644, 142.6526
1415.695, 156.3994
1416.745, 145.5593
1417.795, 194.4553
1418.845, 152.5535
1419.895, 218.5234
1420.945, 210.5254
1421.995, 228.0859
1423.044, 155.8352
1424.093, 180.3047
1425.142, 228.4961
1426.191, 164.7617
1427.240, 184.6450
1428.289, 205.9268
1429.337, 195.3594
1430.385, 193.3162
1431.433, 139.2725
1432.481, 159.5386
1433.529, 141.3252
1434.577, 126.7095
1435.624, 138.0479
1436.672, 88.52734
1437.719, 158.5466
1438.766, 114.8601
1439.812, 155.1226
1440.859, 166.3447
1441.905, 167.0496
1442.952, 136.8191
1443.998, 128.3718
1445.044, 192.4065
1446.090, 151.2087
1447.135, 81.39990
1448.181, 143.2529
1449.226, 138.5701
1450.271, 184.1482
1451.316, 130.1443
1452.361, 97.34033
1453.405, 102.0906
1454.450, 128.0042
1455.494, 139.7380
1456.538, 137.2800
1457.582, 144.5317
1458.626, 126.7507
1459.670, 141.3652
1460.713, 132.1313
1461.757, 135.9656
1462.800, 140.8979
1463.843, 132.8806
1464.886, 100.8298
1465.928, 160.7720
1466.971, 75.77563
1468.013, 110.8359
1469.055, 73.83154
1470.097, 82.88379
1471.139, 101.9224
1472.181, 77.95093
1473.222, 95.95264
1474.263, 66.92944
1475.305, 130.8901
1476.346, 115.8340
1477.386, 60.76221
1478.427, 84.68799
1479.468, 38.61206
1480.508, 65.54541
1481.548, 37.46533
1482.588, 14.27319
1483.628, 15.16870
1484.668, 26.55005
1485.707, 47.76099
1486.747, 66.42554
1487.786, 46.20410
1488.825, 35.98633
1489.864, 72.60229
1490.902, 40.11792
1491.941, 142.7913
1492.979, 17.60010
1494.017, 18.16797
1495.055, 92.96094
1496.093, 28.25342
1497.131, 66.52441
1498.168, 70.29712
1499.206, 47.07227
1500.243, 64.87451
1501.280, 59.74048
1502.317, 28.62158
1503.354, 34.52661
1504.390, 9.455078
1505.426, 9.396729
1506.463, 5.285645
1507.499, 8.995605
1508.535, 0.5708010
1509.570, 17.46411
1510.606, 14.50708
1511.641, 11.43604
1512.676, 31.64209
1513.711, 67.74536
1514.746, 92.85620
1515.781, 59.98340
1516.816, 17.12256
1517.850, 35.27393
1518.884, 53.43091
1519.918, 90.59375
1520.952, 97.75952
1521.986, 103.1140
1523.019, 81.09839
1524.053, 97.27271
1525.086, 21.45361
1526.119, 14.64209
1527.152, 52.63574
1528.185, 116.1609
1529.217, 90.57471
1530.250, 53.70508
1531.282, 53.65063
1532.314, 49.64136
1533.346, 54.12549
1534.377, 65.45312
1535.409, 72.65356
1536.440, 73.81763
1537.472, 65.99756
1538.503, 101.7996
1539.534, 77.93311
1540.564, 1.958984
1541.595, 78.90283
1542.625, 29.51587
1543.656, 39.34839
1544.686, 48.32690
1545.716, 63.77026
1546.745, 126.6865
1547.775, 32.57446
1548.804, 9.429443
1549.834, 99.35156
1550.863, 132.1074
1551.892, 99.86597
1552.920, 91.58521
1553.949, 102.2712
1554.977, 161.1899
1556.006, 126.0747
1557.034, 179.0159
1558.062, 37.97754
1559.089, 7.886963
1560.117, 59.29712
1561.144, 94.51538
1562.172, 57.76514
1563.199, 9.088379
1564.226, 90.50732
1565.252, 9.080811
1566.279, 63.13232
1567.305, 62.35132
1568.332, 8.578857
1569.358, 52.84277
1570.384, 75.09741
1571.409, 0.1523440
1572.435, 0.0000000E+00
##END=



