##NAMES=Axinite-(Fe)
##RRUFFID=R060194
##IDEAL CHEMISTRY=Ca_4_Fe^2+^_2_Al_4_[B_2_Si_8_O_30_](OH)_2_
##LOCALITY=near Dalbandi, Baluchistan Province, Pakistan
##OWNER=RRUFF
##SOURCE=Herbert Obodda
##DESCRIPTION=Brown transparent wedge-shaped single crystal
##STATUS=The identification of this mineral has been confirmed by X-ray diffraction and chemical analysis
##URL=rruff.info/R060194
##MEASURED CHEMISTRY=Ca_2.00_(Fe^2+^_0.66_Mg_0.30_Mn_0.04_)Al_2.00_BSi_4.00_O_15_(OH)
##PIN_ID=L00975
##ORIENTATION=Laser parallel to a* (1 0 0). Fiducial mark perpendicular to laser is parallel to b [0 1 0]
53.91000, 0.0000000E+00
55.14900, 39.01428
56.38700, 67.12958
57.62600, 103.8214
58.86400, 140.2275
60.10300, 178.3059
61.34100, 252.4329
62.57900, 214.9483
63.81700, 173.1563
65.05400, 230.3354
66.29200, 215.1908
67.52900, 176.5126
68.76700, 122.6505
70.00400, 102.3067
71.24100, 207.3986
72.47700, 199.8469
73.71400, 52.55542
74.95100, 97.58704
76.18700, 52.69592
77.42300, 119.8158
78.65900, 0.2286380
79.89500, 73.84119
81.13100, 46.79443
82.36700, 13.84070
83.60200, 115.0011
84.83700, 327.6309
86.07200, 459.0999
87.30800, 784.1001
88.54200, 912.9089
89.77700, 1274.016
91.01200, 1673.373
92.24600, 2126.919
93.48000, 3017.572
94.71400, 3653.256
95.94800, 3927.902
97.18200, 4228.483
98.41600, 4495.980
99.64900, 4434.356
100.8830, 4614.575
102.1160, 4902.609
103.3490, 4777.439
104.5820, 4591.044
105.8150, 4601.414
107.0470, 5111.533
108.2800, 6058.389
109.5120, 8300.974
110.7440, 10248.28
111.9760, 9544.287
113.2080, 8403.997
114.4400, 7832.400
115.6710, 7557.484
116.9030, 7720.246
118.1340, 7578.674
119.3650, 7499.764
120.5960, 7523.509
121.8270, 7268.738
123.0580, 7406.097
124.2880, 7233.747
125.5190, 7076.022
126.7490, 6453.920
127.9790, 5767.345
129.2090, 4987.012
130.4390, 4378.894
131.6680, 3848.975
132.8980, 3278.234
134.1270, 3025.651
135.3560, 2808.194
136.5850, 2877.898
137.8140, 3164.941
139.0430, 3616.486
140.2710, 4088.660
141.5000, 4361.223
142.7280, 4493.042
143.9560, 4233.140
145.1840, 4133.523
146.4120, 4057.208
147.6390, 4215.207
148.8670, 5128.534
150.0940, 6153.205
151.3210, 7530.231
152.5490, 9029.620
153.7750, 9383.385
155.0020, 9140.525
156.2290, 8766.048
157.4550, 8388.956
158.6810, 7902.253
159.9080, 6826.932
161.1340, 5562.001
162.3590, 4346.456
163.5850, 3663.292
164.8110, 3441.514
166.0360, 3553.116
167.2610, 4124.100
168.4860, 5156.462
169.7110, 6893.204
170.9360, 8934.318
172.1610, 10856.81
173.3850, 10977.92
174.6100, 11420.92
175.8340, 10390.53
177.0580, 8800.512
178.2820, 7395.857
179.5050, 5663.572
180.7290, 4450.651
181.9520, 3272.091
183.1760, 2314.893
184.3990, 1586.053
185.6220, 876.5703
186.8450, 479.4429
188.0670, 223.6685
189.2900, 56.75488
190.5120, 15.83008
191.7340, 104.4414
192.9560, 321.0571
194.1780, 708.0151
195.4000, 1154.311
196.6220, 1412.938
197.8430, 1250.900
199.0640, 1202.196
200.2860, 1437.822
201.5070, 2098.272
202.7270, 2994.591
203.9480, 4258.742
205.1690, 5607.660
206.3890, 6781.472
207.6090, 8100.995
208.8290, 9563.257
210.0490, 10767.46
211.2690, 11987.90
212.4890, 13009.76
213.7080, 13637.07
214.9280, 14312.87
216.1470, 14932.79
217.3660, 15231.91
218.5850, 15457.21
219.8030, 15581.40
221.0220, 14717.90
222.2400, 13047.31
223.4590, 10598.88
224.6770, 8300.568
225.8950, 6077.572
227.1120, 4432.116
228.3300, 3114.461
229.5480, 2166.336
230.7650, 1452.575
231.9820, 961.1616
233.1990, 619.1001
234.4160, 423.4165
235.6330, 407.0923
236.8490, 418.1792
238.0660, 819.6895
239.2820, 1391.649
240.4980, 1772.081
241.7140, 2320.997
242.9300, 2450.397
244.1460, 2366.279
245.3610, 2349.630
246.5770, 2104.433
247.7920, 2227.667
249.0070, 2586.310
250.2220, 3130.331
251.4370, 4082.714
252.6510, 5950.452
253.8660, 8676.522
255.0800, 8676.935
256.2940, 9878.670
257.5080, 10158.75
258.7220, 9753.147
259.9360, 9819.835
261.1490, 10173.79
262.3630, 9663.991
263.5760, 9773.449
264.7890, 10437.16
266.0020, 11029.11
267.2150, 11965.31
268.4270, 12930.75
269.6400, 13395.42
270.8520, 14090.33
272.0640, 14442.48
273.2760, 14455.86
274.4880, 14115.46
275.7000, 13570.30
276.9120, 12668.37
278.1230, 11791.67
279.3340, 10393.20
280.5450, 9179.950
281.7560, 7895.933
282.9670, 7025.145
284.1780, 6305.583
285.3880, 5929.245
286.5980, 5873.130
287.8090, 5559.237
289.0190, 5286.563
290.2290, 5130.111
291.4380, 4868.878
292.6480, 4784.861
293.8570, 4685.061
295.0670, 4504.478
296.2760, 4476.107
297.4850, 4193.951
298.6930, 4461.006
299.9020, 3934.271
301.1110, 3841.746
302.3190, 3550.429
303.5270, 3712.317
304.7350, 3885.410
305.9430, 4185.708
307.1510, 4575.207
308.3580, 4820.906
309.5660, 5111.805
310.7730, 5394.901
311.9800, 5757.195
313.1870, 6234.681
314.3940, 7592.362
315.6010, 9774.234
316.8070, 12546.30
318.0130, 15574.55
319.2200, 18528.99
320.4260, 20182.62
321.6310, 20686.43
322.8370, 19062.42
324.0430, 16816.60
325.2480, 14308.95
326.4540, 11921.49
327.6590, 10407.21
328.8640, 9219.094
330.0680, 8693.158
331.2730, 8257.396
332.4780, 8404.806
333.6820, 8469.389
334.8860, 8907.749
336.0900, 9620.503
337.2940, 10755.59
338.4980, 12076.84
339.7010, 14301.25
340.9050, 16797.82
342.1080, 20008.56
343.3110, 23014.46
344.5140, 25633.51
345.7170, 26535.73
346.9200, 24917.14
348.1220, 21898.75
349.3240, 18673.57
350.5270, 15732.59
351.7290, 12890.82
352.9310, 10953.26
354.1320, 8826.896
355.3340, 6804.745
356.5350, 5153.801
357.7370, 3488.065
358.9380, 2311.543
360.1390, 1367.234
361.3400, 748.1396
362.5400, 202.2539
363.7410, 185.4326
364.9410, 402.9487
366.1410, 567.3398
367.3410, 661.6240
368.5410, 695.7090
369.7410, 586.4390
370.9400, 291.6489
372.1400, 73.73389
373.3390, 405.5229
374.5380, 781.9912
375.7370, 901.6167
376.9360, 931.8296
378.1350, 897.0049
379.3330, 972.5527
380.5310, 1195.173
381.7300, 1704.592
382.9280, 2479.443
384.1260, 3722.611
385.3230, 4954.517
386.5210, 6897.825
387.7180, 8562.659
388.9160, 10120.99
390.1130, 11264.86
391.3100, 11471.04
392.5060, 11254.08
393.7030, 10520.50
394.9000, 9772.497
396.0960, 8639.340
397.2920, 7348.457
398.4880, 6314.587
399.6840, 5647.757
400.8800, 5104.395
402.0750, 4854.445
403.2710, 4520.488
404.4660, 4277.275
405.6610, 3989.784
406.8560, 3627.417
408.0510, 3249.173
409.2450, 3224.053
410.4400, 3317.055
411.6340, 3621.176
412.8280, 4224.416
414.0220, 5352.777
415.2160, 6841.254
416.4100, 8994.848
417.6030, 11531.55
418.7970, 14272.38
419.9900, 16468.31
421.1830, 18380.36
422.3760, 20009.52
423.5690, 22475.78
424.7610, 24667.15
425.9540, 26518.63
427.1460, 27552.21
428.3380, 27747.91
429.5300, 26723.70
430.7220, 24955.59
431.9140, 21783.59
433.1050, 18230.69
434.2970, 14740.88
435.4880, 11715.17
436.6790, 8988.556
437.8700, 7262.040
439.0610, 6049.616
440.2510, 5535.287
441.4420, 5545.046
442.6320, 6108.897
443.8220, 7335.837
445.0120, 8458.868
446.2020, 9082.984
447.3910, 8585.185
448.5810, 7353.471
449.7700, 5688.842
450.9600, 4114.293
452.1490, 2970.828
453.3370, 2283.442
454.5260, 1879.135
455.7150, 1645.906
456.9030, 1621.754
458.0910, 1550.679
459.2800, 1489.677
460.4670, 1504.750
461.6550, 1343.895
462.8430, 1240.110
464.0300, 1137.396
465.2180, 1127.752
466.4050, 1395.177
467.5920, 1656.667
468.7790, 2075.225
469.9650, 2562.848
471.1520, 3108.532
472.3380, 3611.280
473.5250, 3688.091
474.7110, 3846.962
475.8970, 4160.892
477.0820, 4514.880
478.2680, 5441.931
479.4540, 6849.039
480.6390, 8583.200
481.8240, 11208.42
483.0090, 14075.69
484.1940, 16967.01
485.3780, 19201.39
486.5630, 19665.81
487.7470, 18266.28
488.9320, 14986.81
490.1160, 11382.38
491.3000, 8255.997
492.4830, 5908.660
493.6670, 4179.364
494.8500, 3075.111
496.0340, 2353.899
497.2170, 2000.728
498.4000, 1746.594
499.5820, 1549.499
500.7650, 1375.438
501.9480, 1169.415
503.1300, 1035.428
504.3120, 831.4888
505.4940, 662.6040
506.6760, 462.3354
507.8580, 409.0298
509.0390, 284.7334
510.2210, 164.3374
511.4020, 135.7041
512.5830, 74.96045
513.7640, 62.96240
514.9450, 89.92334
516.1250, 112.0127
517.3060, 213.2368
518.4860, 109.6255
519.6660, 34.83643
520.8460, 20.80225
522.0260, 209.4502
523.2060, 283.6929
524.3850, 402.9653
525.5650, 503.3467
526.7440, 576.8916
527.9230, 576.6675
529.1020, 578.6904
530.2810, 546.3306
531.4590, 480.8506
532.6380, 411.4639
533.8160, 317.6318
534.9940, 216.0361
536.1720, 151.6304
537.3500, 126.3853
538.5270, 57.29004
539.7050, 86.31396
540.8820, 30.47412
542.0590, 135.7446
543.2360, 1.179688
544.4130, 60.28369
545.5900, 274.6738
546.7660, 419.0518
547.9430, 455.4253
549.1190, 465.7969
550.2950, 426.1719
551.4710, 412.5439
552.6470, 396.9341
553.8220, 489.3311
554.9980, 605.7290
556.1730, 1005.122
557.3480, 1465.506
558.5230, 2229.876
559.6980, 2978.233
560.8730, 4239.575
562.0470, 4797.899
563.2220, 5531.208
564.3960, 5495.500
565.5700, 5213.770
566.7440, 4986.022
567.9170, 4770.255
569.0910, 4974.466
570.2640, 5311.657
571.4380, 5748.822
572.6110, 6475.967
573.7840, 7133.085
574.9570, 7561.178
576.1290, 7466.247
577.3020, 6866.289
578.4740, 6322.302
579.6460, 5349.288
580.8180, 4665.244
581.9900, 4050.172
583.1620, 3367.069
584.3330, 3074.935
585.5040, 2955.769
586.6760, 2882.569
587.8470, 3012.336
589.0180, 3083.069
590.1880, 2979.769
591.3590, 2730.432
592.5290, 2403.059
593.7000, 1904.648
594.8700, 1489.200
596.0400, 998.7148
597.2090, 799.1895
598.3790, 622.4287
599.5490, 537.9448
600.7180, 581.3750
601.8870, 630.6875
603.0560, 763.9580
604.2250, 865.1860
605.3940, 1229.371
606.5620, 1675.511
607.7300, 2227.606
608.8990, 2980.657
610.0670, 3719.277
611.2350, 4612.620
612.4020, 5586.531
613.5700, 6599.396
614.7370, 7809.210
615.9050, 8959.979
617.0720, 10132.69
618.2390, 11351.36
619.4060, 12216.98
620.5720, 12489.55
621.7390, 12464.06
622.9050, 11612.53
624.0710, 9906.938
625.2370, 8092.295
626.4030, 6174.603
627.5690, 4539.853
628.7340, 3457.050
629.9000, 2541.192
631.0650, 1805.279
632.2300, 1495.311
633.3950, 1428.286
634.5600, 1218.204
635.7240, 1340.065
636.8890, 1553.869
638.0530, 1929.616
639.2170, 2003.303
640.3810, 2656.933
641.5450, 2984.607
642.7080, 3600.735
643.8720, 3806.313
645.0350, 4137.104
646.1980, 4135.443
647.3610, 3922.787
648.5240, 3481.065
649.6870, 3041.997
650.8490, 2764.074
652.0120, 2204.580
653.1740, 1833.604
654.3360, 1536.692
655.4980, 1421.886
656.6600, 1178.593
657.8210, 1258.858
658.9830, 1271.126
660.1440, 1256.165
661.3050, 1462.420
662.4660, 1465.788
663.6270, 1795.162
664.7870, 2112.403
665.9480, 2521.830
667.1080, 2999.688
668.2680, 3530.456
669.4280, 4393.629
670.5880, 5327.907
671.7480, 6623.442
672.9070, 8259.329
674.0670, 10257.12
675.2260, 12270.60
676.3850, 13979.57
677.5440, 15286.77
678.7030, 15604.76
679.8610, 14860.80
681.0200, 13132.86
682.1780, 11086.52
683.3360, 9355.822
684.4940, 7637.193
685.6520, 6348.875
686.8090, 5336.148
687.9670, 4547.732
689.1240, 4041.963
690.2810, 3780.539
691.4380, 3773.719
692.5950, 3675.678
693.7520, 3774.831
694.9080, 3989.193
696.0650, 4221.966
697.2210, 4649.388
698.3770, 5304.697
699.5330, 6148.937
700.6880, 7045.103
701.8440, 8303.199
702.9990, 9842.221
704.1550, 11866.17
705.3100, 14479.05
706.4650, 17696.86
707.6190, 21735.60
708.7740, 26817.26
709.9290, 32763.86
711.0830, 39029.38
712.2370, 46119.83
713.3910, 51581.22
714.5450, 54937.53
715.6980, 55499.78
716.8520, 51851.94
718.0050, 46371.04
719.1580, 39004.07
720.3110, 31834.02
721.4640, 25628.92
722.6170, 20455.74
723.7700, 16417.49
724.9220, 13058.17
726.0740, 10510.78
727.2260, 8623.325
728.3780, 7159.800
729.5300, 5911.207
730.6810, 5020.545
731.8330, 4196.815
732.9840, 3560.017
734.1350, 3018.152
735.2860, 2508.220
736.4370, 2280.222
737.5880, 1925.156
738.7380, 1625.023
739.8880, 1402.826
741.0390, 1247.562
742.1890, 1083.232
743.3380, 976.8379
744.4880, 825.3794
745.6380, 780.8564
746.7870, 783.2686
747.9360, 671.6182
749.0850, 629.9043
750.2340, 631.1274
751.3830, 702.2886
752.5310, 780.3872
753.6800, 875.6162
754.8280, 982.4019
755.9760, 1122.318
757.1240, 1257.175
758.2720, 1377.971
759.4190, 1620.708
760.5670, 1742.387
761.7140, 1814.007
762.8610, 1858.571
764.0080, 1956.076
765.1550, 2142.525
766.3020, 2069.919
767.4480, 2236.256
768.5950, 2142.538
769.7410, 2028.766
770.8870, 1851.939
772.0330, 1701.060
773.1780, 1461.126
774.3240, 1217.141
775.4690, 1026.104
776.6140, 806.9648
777.7590, 623.8760
778.9040, 418.6860
780.0490, 320.4458
781.1940, 150.1494
782.3380, 98.77246
783.4820, 32.30273
784.6260, 51.28857
785.7700, 101.0430
786.9140, 161.9844
788.0580, 216.8691
789.2010, 246.9492
790.3450, 313.1973
791.4880, 293.1299
792.6310, 334.3262
793.7730, 338.8101
794.9160, 399.5835
796.0590, 426.6851
797.2010, 488.1162
798.3430, 435.8755
799.4850, 488.9438
800.6270, 488.2925
801.7690, 431.8984
802.9100, 426.6992
804.0520, 320.6631
805.1930, 280.7124
806.3340, 202.8223
807.4750, 71.94727
808.6160, 77.97754
809.7560, 200.0088
810.8970, 303.1475
812.0370, 570.3755
813.1770, 728.6704
814.3170, 864.0171
815.4570, 893.4111
816.5960, 862.8374
817.7360, 770.3042
818.8750, 631.7998
820.0140, 472.3521
821.1530, 336.9277
822.2920, 256.5132
823.4310, 123.0811
824.5690, 56.62158
825.7070, 5.132324
826.8460, 29.60059
827.9840, 67.96387
829.1220, 30.60205
830.2590, 19.29102
831.3970, 5.976563
832.5340, 48.08740
833.6710, 107.5679
834.8080, 148.6235
835.9450, 234.8052
837.0820, 321.9722
838.2190, 339.1260
839.3550, 467.2666
840.4910, 560.3945
841.6270, 686.5112
842.7630, 804.6177
843.8990, 1019.714
845.0350, 1089.802
846.1700, 1369.880
847.3060, 1643.952
848.4410, 1815.017
849.5760, 2221.075
850.7100, 2439.127
851.8450, 2814.176
852.9800, 3014.221
854.1140, 3302.263
855.2480, 3386.302
856.3820, 3551.340
857.5160, 3553.376
858.6500, 3718.413
859.7830, 3708.451
860.9170, 3751.489
862.0500, 3934.531
863.1830, 4027.576
864.3160, 4218.624
865.4480, 4247.676
866.5810, 4363.731
867.7130, 4427.795
868.8460, 4301.866
869.9780, 4409.946
871.1100, 4322.035
872.2410, 4411.140
873.3730, 4335.256
874.5050, 4291.383
875.6360, 4386.522
876.7670, 4504.677
877.8980, 4464.855
879.0290, 4484.056
880.1590, 4464.276
881.2900, 4537.521
882.4200, 4603.796
883.5500, 4619.089
884.6800, 4791.417
885.8100, 4803.780
886.9400, 5013.188
888.0690, 5237.625
889.1990, 5475.103
890.3280, 6093.628
891.4570, 6653.187
892.5860, 7383.786
893.7140, 8363.413
894.8430, 9433.086
895.9710, 10660.79
897.1000, 12045.55
898.2280, 13649.35
899.3560, 15277.19
900.4830, 17253.10
901.6110, 19519.04
902.7380, 22047.03
903.8660, 24568.08
904.9930, 27484.17
906.1200, 29895.29
907.2460, 31317.47
908.3730, 32117.69
909.5000, 31152.98
910.6260, 29765.35
911.7520, 27416.77
912.8780, 25055.27
914.0040, 22169.81
915.1290, 19220.32
916.2550, 16538.35
917.3800, 14163.93
918.5050, 12080.28
919.6300, 10321.06
920.7550, 8993.850
921.8800, 7710.746
923.0040, 6724.056
924.1290, 6113.159
925.2530, 5571.605
926.3770, 5141.135
927.5010, 4852.166
928.6250, 4908.854
929.7480, 4744.522
930.8720, 4744.652
931.9950, 4741.374
933.1180, 4822.525
934.2410, 4873.255
935.3640, 4936.962
936.4860, 4907.038
937.6090, 4916.979
938.7310, 5096.604
939.8530, 5414.222
940.9750, 5628.711
942.0970, 6137.434
943.2180, 6549.714
944.3400, 7343.346
945.4610, 8236.475
946.5820, 9124.996
947.7030, 10392.61
948.8240, 11869.31
949.9450, 13438.11
951.0650, 15141.00
952.1860, 16978.97
953.3060, 18814.04
954.4260, 20793.20
955.5460, 22642.43
956.6650, 24777.75
957.7850, 27235.13
958.9040, 29929.35
960.0230, 33399.25
961.1420, 37524.52
962.2610, 42245.45
963.3800, 47181.79
964.4990, 50812.46
965.6170, 53633.76
966.7350, 54301.96
967.8530, 52675.79
968.9710, 48798.00
970.0890, 44889.31
971.2070, 40700.72
972.3240, 37327.22
973.4410, 34729.79
974.5580, 33950.48
975.6750, 33713.24
976.7920, 34771.08
977.9090, 36369.02
979.0250, 38425.02
980.1410, 39680.12
981.2580, 40667.31
982.3740, 40102.57
983.4890, 38729.92
984.6050, 36610.37
985.7200, 34314.89
986.8360, 32633.48
987.9510, 31205.17
989.0660, 30394.96
990.1810, 30033.81
991.2950, 30052.77
992.4100, 29793.81
993.5240, 29462.94
994.6390, 28824.15
995.7530, 27782.44
996.8660, 27313.83
997.9800, 26544.29
999.0940, 26057.84
1000.207, 25925.48
1001.320, 25644.20
1002.433, 25217.00
1003.546, 24345.90
1004.659, 23544.21
1005.772, 21957.74
1006.884, 20436.96
1007.996, 18581.18
1009.108, 16988.65
1010.220, 14976.72
1011.332, 13284.36
1012.444, 11508.23
1013.555, 10140.48
1014.666, 9045.679
1015.777, 7849.388
1016.888, 7027.801
1017.999, 6267.444
1019.110, 5641.886
1020.220, 5065.868
1021.331, 4575.074
1022.441, 4131.637
1023.551, 3887.950
1024.661, 3593.108
1025.770, 3515.578
1026.880, 3434.779
1027.989, 3401.391
1029.098, 3396.665
1030.207, 3521.168
1031.316, 3319.253
1032.425, 3222.177
1033.533, 3170.305
1034.642, 2856.943
1035.750, 2751.646
1036.858, 2534.148
1037.966, 2500.596
1039.073, 2468.877
1040.181, 2446.082
1041.288, 2558.504
1042.396, 2504.306
1043.503, 2689.920
1044.610, 2842.636
1045.716, 2856.241
1046.823, 2967.920
1047.929, 3174.360
1049.036, 3380.101
1050.142, 3574.396
1051.248, 3909.647
1052.353, 4102.015
1053.459, 4436.292
1054.564, 4886.565
1055.670, 5194.512
1056.775, 5473.830
1057.880, 5726.665
1058.985, 5935.639
1060.089, 6171.475
1061.194, 6118.041
1062.298, 6024.329
1063.402, 5941.452
1064.506, 5572.701
1065.610, 5233.208
1066.713, 4593.398
1067.817, 4139.083
1068.920, 3653.438
1070.023, 3116.683
1071.126, 2858.554
1072.229, 2604.526
1073.332, 2314.488
1074.435, 2400.562
1075.537, 2324.057
1076.639, 2403.329
1077.741, 2674.344
1078.843, 2968.688
1079.945, 3312.937
1081.046, 3642.158
1082.148, 4246.165
1083.249, 4846.208
1084.350, 5272.080
1085.451, 5417.408
1086.551, 5226.776
1087.652, 5003.700
1088.752, 4187.392
1089.853, 3691.247
1090.953, 3035.049
1092.053, 2517.926
1093.152, 2089.828
1094.252, 1703.114
1095.351, 1418.239
1096.451, 1240.419
1097.550, 1187.036
1098.649, 1070.141
1099.748, 1076.617
1100.846, 1073.024
1101.945, 922.6318
1103.043, 1068.796
1104.141, 1069.198
1105.239, 1207.653
1106.337, 1377.466
1107.434, 1313.850
1108.532, 1356.852
1109.629, 1324.985
1110.726, 1327.504
1111.823, 1177.979
1112.920, 999.9492
1114.017, 979.8989
1115.113, 836.6211
1116.210, 809.3027
1117.306, 751.1904
1118.402, 626.5747
1119.498, 520.4302
1120.593, 475.8086
1121.689, 414.2515
1122.784, 368.3452
1123.879, 279.5815
1124.974, 292.2837
1126.069, 292.6826
1127.164, 234.2544
1128.259, 178.9302
1129.353, 122.8579
1130.447, 91.26172
1131.541, 86.50488
1132.635, 27.05566
1133.729, 21.00293
1134.822, 26.77148
1135.916, 13.58887
1137.009, 79.43506
1138.102, 2.322266
1139.195, 12.80078
1140.288, 10.12451
1141.380, 42.03809
1142.473, 94.94971
1143.565, 65.83740
1144.657, 74.38232
1145.749, 68.35596
1146.841, 108.4133
1147.932, 29.46021
1149.024, 123.3997
1150.115, 114.4114
1151.206, 166.3994
1152.297, 74.59106
1153.388, 127.7251
1154.479, 159.9141
1155.569, 87.20654
1156.659, 113.2549
1157.750, 23.52734
1158.839, 128.9346
1159.929, 74.16528
1161.019, 118.4436
1162.108, 125.9104
1163.198, 54.24829
1164.287, 185.7310
1165.376, 63.36133
1166.465, 60.94629
1167.553, 146.2009
1168.642, 23.81616
1169.730, 100.4463
1170.818, 34.98535
1171.906, 76.89478
1172.994, 144.7236
1174.082, 153.4043
1175.170, 118.8574
1176.257, 112.7627
1177.344, 93.73608
1178.431, 69.83154
1179.518, 37.42554
1180.605, 43.20703
1181.691, 0.1682130
1182.778, 18.89014
1183.864, 45.70337
1184.950, 88.59521
1186.036, 94.25024
1187.122, 62.74072
1188.207, 1.634033
1189.292, 14.35913
1190.378, 30.37280
1191.463, 69.56665
1192.548, 13.87842
1193.632, 5.862061
1194.717, 22.17871
1195.801, 54.92358
1196.886, 44.89697
1197.970, 41.95605
1199.054, 16.71509
1200.137, 46.05859
1201.221, 44.04272
1202.305, 45.54126
1203.388, 34.70825
1204.471, 35.56787
1205.554, 53.87793
1206.637, 97.01929
1207.719, 52.11646
1208.802, 49.15308
1209.884, 16.12598
1210.966, 19.95483
1212.048, 27.41357
1213.130, 30.15063
1214.212, 36.96948
1215.293, 31.67554
1216.374, 54.64355
1217.456, 94.71362
1218.536, 106.3027
1219.617, 158.6638
1220.698, 204.3821
1221.778, 184.4048
1222.859, 193.9163
1223.939, 150.0386
1225.019, 92.10669
1226.099, 76.10547
1227.178, 109.0493
1228.258, 105.9905
1229.337, 33.79053
1230.417, 105.6941
1231.496, 134.3235
1232.574, 92.94336
1233.653, 150.4280
1234.732, 152.8494
1235.810, 87.20654
1236.888, 164.4795
1237.966, 187.6885
1239.044, 144.8494
1240.122, 272.9287
1241.199, 177.9529
1242.277, 161.9126
1243.354, 220.8035
1244.431, 265.6353
1245.508, 185.4099
1246.585, 248.1189
1247.661, 208.7725
1248.738, 152.3625
1249.814, 217.9829
1250.890, 218.4365
1251.966, 165.8254
1253.042, 218.1389
1254.117, 215.5383
1255.193, 238.7566
1256.268, 230.8728
1257.343, 228.4333
1258.418, 328.9065
1259.493, 216.8301
1260.567, 242.6843
1261.642, 251.4712
1262.716, 351.2322
1263.790, 293.8906
1264.864, 281.1409
1265.938, 375.7173
1267.011, 327.7131
1268.085, 330.1387
1269.158, 346.7002
1270.231, 347.8416
1271.304, 349.3691
1272.377, 340.4143
1273.450, 285.2598
1274.522, 358.7249
1275.594, 413.3101
1276.666, 368.2969
1277.738, 343.7297
1278.810, 351.8816
1279.882, 337.6797
1280.953, 369.9695
1282.025, 351.5728
1283.096, 352.8076
1284.167, 360.3083
1285.238, 297.0222
1286.308, 336.3979
1287.379, 429.0569
1288.449, 310.3223
1289.519, 314.0698
1290.589, 344.6401
1291.659, 297.6506
1292.729, 325.5713
1293.798, 332.6128
1294.868, 312.9341
1295.937, 251.2034
1297.006, 190.6848
1298.075, 286.2288
1299.143, 257.9517
1300.212, 328.7605
1301.280, 295.4880
1302.348, 245.7358
1303.416, 204.1682
1304.484, 158.5081
1305.552, 152.9565
1306.620, 167.3516
1307.687, 156.9832
1308.754, 184.3208
1309.821, 194.1143
1310.888, 170.9761
1311.955, 173.8167
1313.021, 172.7415
1314.088, 145.8408
1315.154, 85.21509
1316.220, 93.30371
1317.286, 222.9734
1318.352, 157.6182
1319.417, 220.5283
1320.483, 196.8328
1321.548, 253.5969
1322.613, 245.6143
1323.678, 196.6584
1324.743, 214.5908
1325.807, 193.0752
1326.872, 245.1482
1327.936, 149.8188
1329.000, 191.7424
1330.064, 231.1133
1331.128, 185.6064
1332.191, 263.1487
1333.255, 238.8101
1334.318, 343.5549
1335.381, 326.3408
1336.444, 500.4973
1337.507, 303.9072
1338.569, 211.6499
1339.632, 171.5405
1340.694, 257.2898
1341.756, 212.2847
1342.818, 218.1663
1343.880, 219.7908
1344.941, 250.4084
1346.003, 189.4307
1347.064, 229.5332
1348.125, 147.7214
1349.186, 205.7268
1350.247, 322.5896
1351.308, 247.6301
1352.368, 303.1394
1353.428, 268.8230
1354.489, 236.2544
1355.549, 219.2126
1356.608, 255.8914
1357.668, 181.3401
1358.727, 234.7122
1359.787, 212.8760
1360.846, 291.4746
1361.905, 279.8257
1362.964, 287.1150
1364.022, 374.1086
1365.081, 268.4478
1366.139, 213.4265
1367.197, 234.9946
1368.255, 256.1655
1369.313, 244.3682
1370.371, 276.1445
1371.428, 234.9978
1372.486, 264.0996
1373.543, 306.3147
1374.600, 286.9136
1375.657, 219.2576
1376.713, 179.9058
1377.770, 268.2751
1378.826, 240.3828
1379.882, 332.3337
1380.938, 162.4353
1381.994, 188.2366
1383.050, 325.3662
1384.106, 223.3831
1385.161, 248.1594
1386.216, 228.9124
1387.271, 190.3008
1388.326, 203.1895
1389.381, 178.0188
1390.435, 274.4321
1391.490, 212.6304
1392.544, 174.2085
1393.598, 211.5278
1394.652, 157.6802
1395.705, 128.7976
1396.759, 174.9392
1397.812, 214.0413
1398.866, 163.1138
1399.919, 157.1243
1400.972, 160.7598
1402.024, 147.7917
1403.077, 186.8335
1404.129, 137.8240
1405.181, 153.6780
1406.233, 167.5603
1407.285, 245.3757
1408.337, 158.3374
1409.389, 182.8960
1410.440, 190.0767
1411.491, 150.9934
1412.542, 169.6062
1413.593, 182.3789
1414.644, 208.2505
1415.695, 123.8862
1416.745, 113.5254
1417.795, 110.5227
1418.845, 213.8784
1419.895, 117.5596
1420.945, 161.3125
1421.995, 192.9602
1423.044, 162.2295
1424.093, 238.7903
1425.142, 156.3232
1426.191, 238.7056
1427.240, 110.4126
1428.289, 135.9844
1429.337, 219.3340
1430.385, 167.3784
1431.433, 139.8057
1432.481, 164.2332
1433.529, 143.9988
1434.577, 151.6470
1435.624, 180.7114
1436.672, 201.9048
1437.719, 140.8174
1438.766, 102.7759
1439.812, 91.76001
1440.859, 145.5105
1441.905, 137.9639
1442.952, 140.7639
1443.998, 118.3547
1445.044, 116.8237
1446.090, 135.1497
1447.135, 99.60034
1448.181, 115.6958
1449.226, 107.9932
1450.271, 160.4607
1451.316, 90.97266
1452.361, 164.8010
1453.405, 80.26196
1454.450, 84.19629
1455.494, 164.2383
1456.538, 82.25879
1457.582, 103.6746
1458.626, 68.55493
1459.670, 157.3821
1460.713, 35.22070
1461.757, 94.71777
1462.800, 94.55664
1463.843, 37.51538
1464.886, 22.44727
1465.928, 98.29199
1466.971, 29.02051
1468.013, 100.9229
1469.055, 39.88965
1470.097, 31.87183
1471.139, 38.82935
1472.181, 72.78491
1473.222, 21.73486
1474.263, 66.66333
1475.305, 148.5669
1476.346, 31.33472
1477.386, 67.23145
1478.427, 62.88281
1479.468, 54.22583
1480.508, 68.65967
1481.548, 96.54248
1482.588, 40.36694
1483.628, 73.17383
1484.668, 87.88330
1485.707, 73.38989
1486.747, 70.13647
1487.786, 121.7664
1488.825, 50.42969
1489.864, 74.94385
1490.902, 9.747803
1491.941, 101.5063
1492.979, 74.23901
1494.017, 102.0337
1495.055, 42.61890
1496.093, 24.85718
1497.131, 15.42334
1498.168, 3.562744
1499.206, 16.42310
1500.243, 25.81665
1501.280, 17.59961
1502.317, 12.22534
1503.354, 98.08496
1504.390, 15.97876
1505.426, 12.89771
1506.463, 68.68408
1507.499, 41.41895
1508.535, 22.45264
1509.570, 71.51636
1510.606, 0.5017090
1511.641, 85.56982
1512.676, 22.53613
1513.711, 93.45850
1514.746, 77.42554
1515.781, 26.39673
1516.816, 14.73193
1517.850, 128.7842
1518.884, 96.39355
1519.918, 107.7141
1520.952, 92.18213
1521.986, 109.2617
1523.019, 72.77393
1524.053, 84.66309
1525.086, 58.52759
1526.119, 77.31641
1527.152, 67.62402
1528.185, 36.10596
1529.217, 40.96411
1530.250, 101.8291
1531.282, 125.4841
1532.314, 122.5435
1533.346, 47.39575
1534.377, 114.9900
1535.409, 97.74561
1536.440, 152.7104
1537.472, 89.77637
1538.503, 67.73145
1539.534, 88.08423
1540.564, 150.4199
1541.595, 139.4080
1542.625, 110.8059
1543.656, 68.66504
1544.686, 68.54126
1545.716, 55.74731
1546.745, 61.60400
1547.775, 75.93140
1548.804, 80.88330
1549.834, 113.7725
1550.863, 94.48413
1551.892, 84.20874
1552.920, 116.3430
1553.949, 143.4124
1554.977, 167.5630
1556.006, 202.0054
1557.034, 295.5188
1558.062, 42.09351
1559.089, 69.76880
1560.117, 34.75610
1561.144, 76.88965
1562.172, 118.2085
1563.199, 53.72827
1564.226, 0.5373540
1565.252, 76.66821
1566.279, 78.20117
1567.305, 25.20850
1568.332, 37.81763
1569.358, 5.929688
1570.384, 133.5032
1571.409, 0.4777830
1572.435, 0.0000000E+00
##END=



