##NAMES=Azurite
##RRUFFID=R050638
##IDEAL CHEMISTRY=Cu_3_(CO_3_)_2_(OH)_2_
##LOCALITY=Zacatecas, Mexico
##OWNER=RRUFF
##SOURCE=University of Arizona Mineral Museum
##DESCRIPTION=Blue bladed crystals
##STATUS=The identification of this mineral has been confirmed by X-ray diffraction and chemical analysis
##URL=rruff.info/R050638
##MEASURED CHEMISTRY=Cu_3.00_(CO_3_)_2_(OH)_2_
##PIN_ID=M00381
##ORIENTATION=Laser parallel to a* (1 0 0). Fiducial mark perpendicular to laser is parallel to b [0 1 0]
52.67100, 0.0000000E+00
53.91000, 86.10779
55.14900, 134.0205
56.38700, 89.78070
57.62600, 84.12744
58.86400, 172.6467
60.10300, 100.0189
61.34100, 32.35748
62.57900, 23.00830
63.81700, 85.75488
65.05400, 46.54089
66.29200, 66.02661
67.52900, 262.4081
68.76700, 621.1382
70.00400, 1414.875
71.24100, 2568.335
72.47700, 4045.233
73.71400, 6928.275
74.95100, 11816.19
76.18700, 17418.73
77.42300, 20141.70
78.65900, 21535.87
79.89500, 24188.10
81.13100, 26034.24
82.36700, 25917.15
83.60200, 24372.72
84.83700, 21563.98
86.07200, 17525.06
87.30800, 13386.86
88.54200, 10039.24
89.77700, 8112.437
91.01200, 6249.207
92.24600, 5581.523
93.48000, 4720.902
94.71400, 4023.253
95.94800, 3749.507
97.18200, 3283.604
98.41600, 3104.492
99.64900, 3108.132
100.8830, 2886.486
102.1160, 2823.521
103.3490, 2722.210
104.5820, 2911.526
105.8150, 3200.446
107.0470, 3643.951
108.2800, 4110.019
109.5120, 4855.636
110.7440, 4713.781
111.9760, 3336.444
113.2080, 2792.607
114.4400, 2854.353
115.6710, 3340.812
116.9030, 3425.797
118.1340, 3352.734
119.3650, 3354.418
120.5960, 3772.250
121.8270, 4756.235
123.0580, 6590.383
124.2880, 8298.697
125.5190, 8564.184
126.7490, 8810.774
127.9790, 11168.25
129.2090, 15266.60
130.4390, 21182.85
131.6680, 26523.01
132.8980, 27807.07
134.1270, 25648.14
135.3560, 24807.26
136.5850, 25085.45
137.8140, 24574.73
139.0430, 23226.12
140.2710, 21947.62
141.5000, 20495.25
142.7280, 19123.03
143.9560, 17773.96
145.1840, 16729.04
146.4120, 15976.29
147.6390, 14430.71
148.8670, 11877.29
150.0940, 10359.06
151.3210, 9577.002
152.5490, 9382.130
153.7750, 8988.437
155.0020, 8044.930
156.2290, 7608.609
157.4550, 6737.477
158.6810, 6073.533
159.9080, 5546.776
161.1340, 5568.205
162.3590, 5804.820
163.5850, 6565.622
164.8110, 7023.607
166.0360, 7517.772
167.2610, 8571.125
168.4860, 10995.66
169.7110, 14862.37
170.9360, 18991.26
172.1610, 21267.33
173.3850, 20299.59
174.6100, 18665.02
175.8340, 17905.81
177.0580, 17617.55
178.2820, 17012.79
179.5050, 16108.12
180.7290, 15406.23
181.9520, 14480.07
183.1760, 13153.47
184.3990, 12000.90
185.6220, 11135.30
186.8450, 9962.898
188.0670, 9196.695
189.2900, 8756.694
190.5120, 8257.874
191.7340, 8071.235
192.9560, 7813.771
194.1780, 7539.478
195.4000, 7158.361
196.6220, 6907.416
197.8430, 6348.643
199.0640, 5618.044
200.2860, 5033.407
201.5070, 4518.562
202.7270, 4204.488
203.9480, 3579.323
205.1690, 2513.596
206.3890, 1574.686
207.6090, 972.3130
208.8290, 707.0083
210.0490, 613.0361
211.2690, 539.5564
212.4890, 388.2197
213.7080, 463.4539
214.9280, 354.0991
216.1470, 315.1343
217.3660, 245.5405
218.5850, 190.2998
219.8030, 251.3962
221.0220, 193.8145
222.2400, 277.5413
223.4590, 427.5640
224.6770, 669.8716
225.8950, 1047.453
227.1120, 1542.299
228.3300, 2497.402
229.5480, 3223.753
230.7650, 3473.342
231.9820, 3588.164
233.1990, 3633.210
234.4160, 3926.472
235.6330, 4493.943
236.8490, 5421.615
238.0660, 6833.484
239.2820, 8849.543
240.4980, 10616.79
241.7140, 10981.22
242.9300, 10211.82
244.1460, 9381.601
245.3610, 9206.551
246.5770, 8945.666
247.7920, 8420.945
249.0070, 7874.389
250.2220, 7082.989
251.4370, 6147.744
252.6510, 5121.652
253.8660, 3998.711
255.0800, 2909.916
256.2940, 2273.267
257.5080, 2001.762
258.7220, 1932.397
259.9360, 2428.171
261.1490, 2546.082
262.3630, 1810.120
263.5760, 1579.276
264.7890, 1589.541
266.0020, 1670.910
267.2150, 1813.384
268.4270, 2147.962
269.6400, 2513.643
270.8520, 3025.427
272.0640, 3396.313
273.2760, 3947.300
274.4880, 4360.390
275.7000, 4731.583
276.9120, 4796.880
278.1230, 4904.281
279.3340, 4871.788
280.5450, 4682.398
281.7560, 4517.117
282.9670, 4260.939
284.1780, 3859.865
285.3880, 3364.897
286.5980, 2868.032
287.8090, 2355.272
289.0190, 1780.614
290.2290, 1370.058
291.4380, 1010.604
292.6480, 752.2520
293.8570, 475.0000
295.0670, 269.8481
296.2760, 74.79541
297.4850, 175.1592
298.6930, 268.0488
299.9020, 380.8923
301.1110, 479.7107
302.3190, 413.5203
303.5270, 534.3098
304.7350, 557.0889
305.9430, 492.8672
307.1510, 535.6333
308.3580, 441.3987
309.5660, 416.1436
310.7730, 313.8569
311.9800, 301.5210
313.1870, 259.1262
314.3940, 4.337158
315.6010, 164.9155
316.8070, 402.6155
318.0130, 771.4341
319.2200, 1210.370
320.4260, 1858.416
321.6310, 2403.541
322.8370, 3070.629
324.0430, 3725.638
325.2480, 4266.504
326.4540, 4632.256
327.6590, 4725.933
328.8640, 4804.591
330.0680, 4715.287
331.2730, 4547.091
332.4780, 4313.003
333.6820, 3990.034
334.8860, 3677.162
336.0900, 3112.412
337.2940, 2690.770
338.4980, 2260.234
339.7010, 1953.807
340.9050, 1726.487
342.1080, 1448.270
343.3110, 1397.142
344.5140, 1241.104
345.7170, 1226.194
346.9200, 1221.407
348.1220, 1273.748
349.3240, 1396.216
350.5270, 1529.828
351.7290, 1771.566
352.9310, 1997.428
354.1320, 2320.411
355.3340, 2732.525
356.5350, 2974.771
357.7370, 3252.138
358.9380, 3802.619
360.1390, 4155.211
361.3400, 4537.915
362.5400, 4971.724
363.7410, 5096.647
364.9410, 5508.677
366.1410, 5923.825
367.3410, 6279.087
368.5410, 6723.464
369.7410, 7158.957
370.9400, 7665.858
372.1400, 8241.266
373.3390, 8795.064
374.5380, 9422.964
375.7370, 10094.96
376.9360, 10794.08
378.1350, 11765.24
379.3330, 12340.55
380.5310, 13233.94
381.7300, 14122.42
382.9280, 15322.99
384.1260, 16796.65
385.3230, 18538.40
386.5210, 20715.22
387.7180, 24004.14
388.9160, 27966.13
390.1130, 32568.20
391.3100, 38122.33
392.5060, 43562.55
393.7030, 47835.85
394.9000, 50306.23
396.0960, 51430.67
397.2920, 51335.17
398.4880, 50635.76
399.6840, 48944.41
400.8800, 46762.12
402.0750, 43640.89
403.2710, 40055.75
404.4660, 36629.64
405.6610, 32841.61
406.8560, 29237.63
408.0510, 25952.71
409.2450, 23267.84
410.4400, 21470.03
411.6340, 19758.28
412.8280, 18343.58
414.0220, 16935.94
415.2160, 15631.34
416.4100, 14472.80
417.6030, 13180.31
418.7970, 12132.88
419.9900, 11053.49
421.1830, 9920.151
422.3760, 8864.861
423.5690, 7984.618
424.7610, 6971.421
425.9540, 6261.272
427.1460, 5572.167
428.3380, 4769.109
429.5300, 4296.094
430.7220, 3807.123
431.9140, 3362.196
433.1050, 2952.310
434.2970, 2633.467
435.4880, 2438.663
436.6790, 2120.901
437.8700, 1867.177
439.0610, 1717.493
440.2510, 1402.848
441.4420, 1193.364
442.6320, 1058.815
443.8220, 977.3811
445.0120, 932.9253
446.2020, 774.4414
447.3910, 670.9648
448.5810, 621.8535
449.7700, 541.8477
450.9600, 471.3738
452.1490, 425.5154
453.3370, 321.5208
454.5260, 339.5059
455.7150, 338.6990
456.9030, 309.5469
458.0910, 242.2131
459.2800, 339.9832
460.4670, 326.2871
461.6550, 294.2539
462.8430, 334.9458
464.0300, 364.8176
465.2180, 332.7305
466.4050, 301.0867
467.5920, 237.6724
468.7790, 322.5176
469.9650, 267.2378
471.1520, 236.9670
472.3380, 206.4414
473.5250, 171.5005
474.7110, 132.5203
475.8970, 125.2561
477.0820, 180.9377
478.2680, 110.9194
479.4540, 196.4221
480.6390, 118.3953
481.8240, 178.4736
483.0090, 198.0291
484.1940, 194.0645
485.3780, 187.1091
486.5630, 219.4890
487.7470, 165.2217
488.9320, 156.7788
490.1160, 209.5371
491.3000, 185.5979
492.4830, 185.0869
493.6670, 148.4167
494.8500, 137.7717
496.0340, 90.99365
497.2170, 154.8667
498.4000, 156.5032
499.5820, 105.3906
500.7650, 88.40747
501.9480, 66.33643
503.1300, 34.51660
504.3120, 60.50903
505.4940, 62.42480
506.6760, 48.81348
507.8580, 57.49463
509.0390, 75.22729
510.2210, 54.86108
511.4020, 110.7466
512.5830, 116.5464
513.7640, 104.1550
514.9450, 173.5649
516.1250, 154.2913
517.3060, 248.2043
518.4860, 235.7673
519.6660, 340.0188
520.8460, 389.5391
522.0260, 542.0376
523.2060, 597.3325
524.3850, 798.6587
525.5650, 980.0347
526.7440, 1190.350
527.9230, 1502.479
529.1020, 1835.112
530.2810, 2281.222
531.4590, 2721.892
532.6380, 3156.228
533.8160, 3588.103
534.9940, 3958.844
536.1720, 4209.851
537.3500, 4405.969
538.5270, 4381.230
539.7050, 4334.067
540.8820, 4065.857
542.0590, 3931.552
543.2360, 3527.641
544.4130, 3164.390
545.5900, 2789.276
546.7660, 2476.882
547.9430, 2073.281
549.1190, 1824.748
550.2950, 1520.232
551.4710, 1315.633
552.6470, 1081.035
553.8220, 989.2998
554.9980, 829.3887
556.1730, 746.4346
557.3480, 665.4241
558.5230, 625.3633
559.6980, 561.4165
560.8730, 551.1494
562.0470, 490.9951
563.2220, 467.8083
564.3960, 480.5886
565.5700, 364.3362
566.7440, 405.2957
567.9170, 380.2019
569.0910, 415.3740
570.2640, 358.9841
571.4380, 342.5583
572.6110, 278.0972
573.7840, 242.5999
574.9570, 236.0654
576.1290, 224.4944
577.3020, 177.7610
578.4740, 138.2393
579.6460, 114.5547
580.8180, 77.83105
581.9900, 56.82056
583.1620, 49.30005
584.3330, 26.54150
585.5040, 3.811279
586.6760, 10.11938
587.8470, 59.54443
589.0180, 41.19043
590.1880, 35.80420
591.3590, 31.39795
592.5290, 34.11816
593.7000, 56.51318
594.8700, 51.07373
596.0400, 76.66113
597.2090, 86.77466
598.3790, 88.37476
599.5490, 94.77344
600.7180, 85.68237
601.8870, 78.70288
603.0560, 56.83203
604.2250, 90.05933
605.3940, 57.40259
606.5620, 110.8455
607.7300, 49.41724
608.8990, 84.08594
610.0670, 64.87036
611.2350, 63.76147
612.4020, 5.241089
613.5700, 18.82739
614.7370, 32.97998
615.9050, 59.22461
617.0720, 6.424316
618.2390, 76.99927
619.4060, 36.53979
620.5720, 27.17651
621.7390, 43.90491
622.9050, 34.73450
624.0710, 25.66064
625.2370, 32.32080
626.4030, 23.23694
627.5690, 15.08447
628.7340, 57.85962
629.9000, 16.57397
631.0650, 40.21606
632.2300, 28.20752
633.3950, 33.27271
634.5600, 33.68506
635.7240, 40.02905
636.8890, 19.30603
638.0530, 27.50977
639.2170, 20.64258
640.3810, 17.70215
641.5450, 20.96924
642.7080, 14.59875
643.8720, 20.43396
645.0350, 1.194824
646.1980, 6.127686
647.3610, 26.53772
648.5240, 40.04602
649.6870, 28.65991
650.8490, 61.37341
652.0120, 12.20398
653.1740, 25.12561
654.3360, 45.85474
655.4980, 11.23413
656.6600, 1.586182
657.8210, 7.322754
658.9830, 36.02161
660.1440, 56.46948
661.3050, 7.968262
662.4660, 5.674438
663.6270, 11.59558
664.7870, 9.787354
665.9480, 10.90002
667.1080, 15.93457
668.2680, 2.892700
669.4280, 56.76868
670.5880, 30.57715
671.7480, 44.31360
672.9070, 66.98059
674.0670, 1.417725
675.2260, 57.10059
676.3850, 50.55212
677.5440, 101.9358
678.7030, 63.25916
679.8610, 64.51733
681.0200, 68.71033
682.1780, 108.8391
683.3360, 133.9088
684.4940, 120.9221
685.6520, 144.9600
686.8090, 166.7788
687.9670, 155.6263
689.1240, 150.4197
690.2810, 157.1588
691.4380, 153.5685
692.5950, 166.6426
693.7520, 184.0559
694.9080, 185.5840
696.0650, 191.2870
697.2210, 209.4989
698.3770, 200.8652
699.5330, 237.1930
700.6880, 266.4714
701.8440, 269.7007
702.9990, 345.8811
704.1550, 308.0129
705.3100, 346.0962
706.4650, 288.1311
707.6190, 332.1179
708.7740, 304.0569
709.9290, 335.9484
711.0830, 325.7924
712.2370, 424.5890
713.3910, 361.3386
714.5450, 427.0415
715.6980, 419.6981
716.8520, 478.3082
718.0050, 501.8721
719.1580, 493.3904
720.3110, 575.8629
721.4640, 607.2903
722.6170, 593.6687
723.7700, 736.6694
724.9220, 756.7070
726.0740, 862.0173
727.2260, 881.1793
728.3780, 1063.332
729.5300, 1119.713
730.6810, 1185.262
731.8330, 1373.560
732.9840, 1603.454
734.1350, 1794.586
735.2860, 1968.081
736.4370, 2146.400
737.5880, 2283.207
738.7380, 2453.187
739.8880, 2576.634
741.0390, 2709.421
742.1890, 2722.482
743.3380, 2738.365
744.4880, 2767.205
745.6380, 2719.602
746.7870, 2808.766
747.9360, 2776.669
749.0850, 2829.699
750.2340, 2928.727
751.3830, 3003.011
752.5310, 3219.709
753.6800, 3390.451
754.8280, 3665.470
755.9760, 4050.542
757.1240, 4504.306
758.2720, 4573.542
759.4190, 4832.299
760.5670, 4963.943
761.7140, 5037.109
762.8610, 4838.782
764.0080, 4734.439
765.1550, 4464.751
766.3020, 4136.703
767.4480, 3725.819
768.5950, 3411.723
769.7410, 3087.314
770.8870, 2735.464
772.0330, 2319.762
773.1780, 2129.022
774.3240, 1838.402
775.4690, 1703.117
776.6140, 1525.055
777.7590, 1357.728
778.9040, 1343.256
780.0490, 1199.857
781.1940, 1082.192
782.3380, 1058.698
783.4820, 1021.383
784.6260, 983.8448
785.7700, 989.7864
786.9140, 961.0024
788.0580, 1010.587
789.2010, 1015.098
790.3450, 1041.676
791.4880, 1036.426
792.6310, 1035.357
793.7730, 1065.952
794.9160, 1087.341
796.0590, 1137.060
797.2010, 1171.071
798.3430, 1168.793
799.4850, 1306.517
800.6270, 1348.423
801.7690, 1460.277
802.9100, 1595.060
804.0520, 1579.882
805.1930, 1764.870
806.3340, 1910.330
807.4750, 1983.292
808.6160, 2327.672
809.7560, 2539.364
810.8970, 2817.492
812.0370, 3128.732
813.1770, 3526.685
814.3170, 3881.501
815.4570, 4351.152
816.5960, 4888.203
817.7360, 5571.278
818.8750, 6335.423
820.0140, 7184.152
821.1530, 8317.194
822.2920, 9723.077
823.4310, 11675.21
824.5690, 13378.53
825.7070, 14830.76
826.8460, 16226.94
827.9840, 17527.18
829.1220, 18324.40
830.2590, 18797.73
831.3970, 18708.21
832.5340, 18535.70
833.6710, 17625.23
834.8080, 16636.78
835.9450, 15438.33
837.0820, 14018.89
838.2190, 12718.46
839.3550, 11207.03
840.4910, 10053.61
841.6270, 8790.192
842.7630, 7704.784
843.8990, 6676.381
845.0350, 5836.988
846.1700, 5117.601
847.3060, 4475.222
848.4410, 3980.854
849.5760, 3325.493
850.7100, 3029.143
851.8450, 2546.801
852.9800, 2269.469
854.1140, 1999.148
855.2480, 1800.837
856.3820, 1595.422
857.5160, 1427.248
858.6500, 1276.970
859.7830, 1139.006
860.9170, 1058.455
862.0500, 938.2241
863.1830, 873.0864
864.3160, 840.0698
865.4480, 677.9270
866.5810, 658.8157
867.7130, 656.7354
868.8460, 556.8872
869.9780, 565.8975
871.1100, 546.0332
872.2410, 476.9785
873.3730, 502.2415
874.5050, 487.4243
875.6360, 494.2493
876.7670, 492.7258
877.8980, 515.9160
879.0290, 492.8281
880.1590, 447.0779
881.2900, 435.2952
882.4200, 444.1216
883.5500, 421.9746
884.6800, 502.8962
885.8100, 504.0071
886.9400, 518.5125
888.0690, 502.3906
889.1990, 526.5610
890.3280, 519.6353
891.4570, 495.4209
892.5860, 503.3284
893.7140, 506.7305
894.8430, 520.6667
895.9710, 552.7378
897.1000, 564.0000
898.2280, 630.1665
899.3560, 695.4243
900.4830, 699.6860
901.6110, 655.9651
902.7380, 774.3264
903.8660, 718.6626
904.9930, 833.0288
906.1200, 886.4246
907.2460, 886.8689
908.3730, 961.3411
909.5000, 1079.851
910.6260, 1105.388
911.7520, 1244.963
912.8780, 1356.568
914.0040, 1441.206
915.1290, 1540.875
916.2550, 1739.584
917.3800, 1968.326
918.5050, 2180.104
919.6300, 2336.919
920.7550, 2696.779
921.8800, 3163.688
923.0040, 3562.646
924.1290, 4174.649
925.2530, 4688.708
926.3770, 5230.805
927.5010, 6092.948
928.6250, 6867.120
929.7480, 7787.334
930.8720, 8422.584
931.9950, 9107.872
933.1180, 9449.203
934.2410, 9770.592
935.3640, 9949.013
936.4860, 9829.475
937.6090, 9491.973
938.7310, 9160.509
939.8530, 8374.080
940.9750, 7683.689
942.0970, 7015.336
943.2180, 6180.013
944.3400, 5510.723
945.4610, 4765.465
946.5820, 4186.241
947.7030, 3708.057
948.8240, 3149.906
949.9450, 2831.785
951.0650, 2414.695
952.1860, 2073.638
953.3060, 1879.617
954.4260, 1724.636
955.5460, 1541.688
956.6650, 1417.766
957.7850, 1299.870
958.9040, 1199.000
960.0230, 1178.154
961.1420, 1139.338
962.2610, 1034.547
963.3800, 923.7805
964.4990, 919.0386
965.6170, 810.3213
966.7350, 820.6277
967.8530, 709.9580
968.9710, 666.3123
970.0890, 668.6907
971.2070, 704.0938
972.3240, 641.5205
973.4410, 572.9712
974.5580, 534.4468
975.6750, 440.9465
976.7920, 470.4717
977.9090, 391.0232
979.0250, 397.5991
980.1410, 369.1968
981.2580, 349.8162
982.3740, 273.4580
983.4890, 278.1257
984.6050, 199.8145
985.7200, 233.5242
986.8360, 203.2551
987.9510, 109.0074
989.0660, 103.7806
990.1810, 121.5747
991.2950, 107.3893
992.4100, 27.22412
993.5240, 74.07947
994.6390, 15.95496
995.7530, 4.850464
996.8660, 4.234009
997.9800, 9.300049
999.0940, 32.65100
1000.207, 42.62170
1001.320, 9.611694
1002.433, 10.37866
1003.546, 89.35303
1004.659, 5.335815
1005.772, 33.30237
1006.884, 132.2595
1007.996, 36.57556
1009.108, 76.55212
1010.220, 66.53540
1011.332, 57.91772
1012.444, 73.62329
1013.555, 55.91394
1014.666, 53.56567
1015.777, 41.56262
1016.888, 40.53516
1017.999, 64.51086
1019.110, 67.48608
1020.220, 57.40674
1021.331, 27.14880
1022.441, 64.15076
1023.551, 7.163208
1024.661, 27.02832
1025.770, 12.20276
1026.880, 9.792847
1027.989, 41.77161
1029.098, 38.59082
1030.207, 30.07581
1031.316, 30.92114
1032.425, 3.793335
1033.533, 5.183838
1034.642, 35.35120
1035.750, 4.008301
1036.858, 35.31750
1037.966, 43.41907
1039.073, 43.23218
1040.181, 61.14551
1041.288, 55.30188
1042.396, 74.30872
1043.503, 52.45398
1044.610, 53.36816
1045.716, 53.52893
1046.823, 32.18420
1047.929, 66.37854
1049.036, 90.49866
1050.142, 88.68774
1051.248, 106.0690
1052.353, 107.2708
1053.459, 117.1052
1054.564, 124.3270
1055.670, 130.1516
1056.775, 159.4366
1057.880, 186.8622
1058.985, 193.0947
1060.089, 213.3315
1061.194, 232.8481
1062.298, 195.0920
1063.402, 213.3397
1064.506, 284.6497
1065.610, 273.9031
1066.713, 349.2864
1067.817, 333.6440
1068.920, 379.2495
1070.023, 1179.694
1071.126, 1635.383
1072.229, 2403.736
1073.332, 2184.955
1074.435, 1747.474
1075.537, 1678.449
1076.639, 1131.369
1077.741, 964.0222
1078.843, 1040.743
1079.945, 1169.233
1081.046, 1366.236
1082.148, 1583.764
1083.249, 1804.828
1084.350, 2205.100
1085.451, 2788.123
1086.551, 3471.853
1087.652, 4598.843
1088.752, 5899.388
1089.853, 7797.777
1090.953, 9931.602
1092.053, 12084.02
1093.152, 13268.71
1094.252, 13578.16
1095.351, 13094.68
1096.451, 11673.17
1097.550, 10184.71
1098.649, 8570.242
1099.748, 6917.801
1100.846, 5473.442
1101.945, 4250.303
1103.043, 3338.053
1104.141, 2676.841
1105.239, 2105.505
1106.337, 1823.511
1107.434, 1495.259
1108.532, 1333.424
1109.629, 1132.688
1110.726, 1005.607
1111.823, 900.8759
1112.920, 780.2152
1114.017, 680.6528
1115.113, 627.9194
1116.210, 566.1207
1117.306, 495.2902
1118.402, 501.5363
1119.498, 476.7919
1120.593, 501.9733
1121.689, 412.1973
1122.784, 436.2893
1123.879, 388.3723
1124.974, 312.5438
1126.069, 360.6361
1127.164, 279.6951
1128.259, 239.8503
1129.353, 197.8182
1130.447, 188.7078
1131.541, 134.7848
1132.635, 121.8402
1133.729, 123.0439
1134.822, 85.85559
1135.916, 101.9093
1137.009, 65.77026
1138.102, 83.85510
1139.195, 18.76355
1140.288, 66.83875
1141.380, 66.15588
1142.473, 16.87146
1143.565, 23.89343
1144.657, 12.22156
1145.749, 19.24890
1146.841, 36.33777
1147.932, 3.863159
1149.024, 12.61365
1150.115, 27.87134
1151.206, 22.20874
1152.297, 20.05676
1153.388, 25.82471
1154.479, 24.18933
1155.569, 16.64551
1156.659, 13.46204
1157.750, 16.86584
1158.839, 25.57385
1159.929, 29.11145
1161.019, 13.60449
1162.108, 15.98584
1163.198, 29.46069
1164.287, 12.98816
1165.376, 1.456299
1166.465, 8.024170
1167.553, 17.44385
1168.642, 49.97681
1169.730, 6.378784
1170.818, 7.239014
1171.906, 54.11584
1172.994, 16.54248
1174.082, 39.86890
1175.170, 9.835449
1176.257, 52.43079
1177.344, 13.73767
1178.431, 39.97168
1179.518, 11.80835
1180.605, 49.38037
1181.691, 0.5552980
1182.778, 88.75342
1183.864, 6.110840
1184.950, 4.123291
1186.036, 13.20654
1187.122, 38.26978
1188.207, 27.38635
1189.292, 64.41821
1190.378, 64.46094
1191.463, 25.49683
1192.548, 59.48193
1193.632, 90.52295
1194.717, 45.47864
1195.801, 66.49280
1196.886, 35.41785
1197.970, 39.37952
1199.054, 25.42969
1200.137, 33.45752
1201.221, 22.97546
1202.305, 45.33118
1203.388, 8.190430
1204.471, 31.44409
1205.554, 29.43286
1206.637, 55.57800
1207.719, 26.42139
1208.802, 0.5052490
1209.884, 35.27954
1210.966, 14.95898
1212.048, 33.66333
1213.130, 13.40039
1214.212, 8.153198
1215.293, 5.057617
1216.374, 16.31665
1217.456, 4.519531
1218.536, 34.25012
1219.617, 47.86194
1220.698, 22.53699
1221.778, 46.00769
1222.859, 0.6120610
1223.939, 44.03943
1225.019, 38.28040
1226.099, 41.81458
1227.178, 37.35974
1228.258, 37.82935
1229.337, 36.27295
1230.417, 31.59375
1231.496, 21.98901
1232.574, 26.26672
1233.653, 24.59595
1234.732, 29.95312
1235.810, 16.20850
1236.888, 25.90149
1237.966, 11.18848
1239.044, 8.318604
1240.122, 18.56311
1241.199, 67.68604
1242.277, 52.77197
1243.354, 41.92065
1244.431, 7.006104
1245.508, 78.13062
1246.585, 84.11328
1247.661, 64.11829
1248.738, 60.03223
1249.814, 75.99646
1250.890, 63.87549
1251.966, 94.84558
1253.042, 96.85474
1254.117, 70.68286
1255.193, 87.49390
1256.268, 98.51611
1257.343, 70.40051
1258.418, 102.8010
1259.493, 92.69299
1260.567, 83.60010
1261.642, 86.38330
1262.716, 53.23047
1263.790, 91.90747
1264.864, 74.72083
1265.938, 115.7128
1267.011, 111.4603
1268.085, 73.63379
1269.158, 60.68457
1270.231, 113.3518
1271.304, 94.97131
1272.377, 123.0314
1273.450, 125.3553
1274.522, 114.3573
1275.594, 110.6074
1276.666, 100.1941
1277.738, 98.00281
1278.810, 95.30164
1279.882, 92.84143
1280.953, 91.31433
1282.025, 85.70068
1283.096, 85.55371
1284.167, 95.66956
1285.238, 84.05359
1286.308, 102.3344
1287.379, 99.83948
1288.449, 115.7800
1289.519, 121.4629
1290.589, 122.6288
1291.659, 115.1223
1292.729, 104.7371
1293.798, 58.82947
1294.868, 74.14038
1295.937, 71.95776
1297.006, 53.11804
1298.075, 129.4814
1299.143, 106.1290
1300.212, 109.9272
1301.280, 95.25098
1302.348, 53.40845
1303.416, 119.7052
1304.484, 96.22839
1305.552, 63.49988
1306.620, 125.2716
1307.687, 79.49890
1308.754, 126.7972
1309.821, 140.0254
1310.888, 62.05908
1311.955, 83.26697
1313.021, 41.83740
1314.088, 106.0145
1315.154, 106.5841
1316.220, 54.68738
1317.286, 73.64355
1318.352, 64.78540
1319.417, 62.91479
1320.483, 116.7555
1321.548, 53.85803
1322.613, 84.94312
1323.678, 52.95740
1324.743, 76.01904
1325.807, 57.94104
1326.872, 32.87878
1327.936, 33.55945
1329.000, 34.39124
1330.064, 62.96753
1331.128, 60.86975
1332.191, 96.89465
1333.255, 57.60840
1334.318, 68.25916
1335.381, 45.14172
1336.444, 4.680176
1337.507, 46.13403
1338.569, 75.80347
1339.632, 54.94653
1340.694, 42.55249
1341.756, 32.61023
1342.818, 17.66101
1343.880, 19.51819
1344.941, 4.869141
1346.003, 2.947266
1347.064, 25.45776
1348.125, 20.88953
1349.186, 49.31396
1350.247, 12.91272
1351.308, 18.77368
1352.368, 16.22827
1353.428, 12.21558
1354.489, 7.688843
1355.549, 18.08496
1356.608, 19.47534
1357.668, 26.63318
1358.727, 38.07837
1359.787, 43.09497
1360.846, 25.20874
1361.905, 31.27039
1362.964, 13.44055
1364.022, 11.74451
1365.081, 12.31445
1366.139, 42.94250
1367.197, 8.457153
1368.255, 31.30286
1369.313, 35.78357
1370.371, 16.17957
1371.428, 26.46301
1372.486, 9.902710
1373.543, 39.39258
1374.600, 29.89978
1375.657, 52.31494
1376.713, 30.70581
1377.770, 69.15552
1378.826, 20.54736
1379.882, 7.055908
1380.938, 51.55750
1381.994, 56.95496
1383.050, 26.58423
1384.106, 19.89355
1385.161, 16.74109
1386.216, 9.721680
1387.271, 2.162109
1388.326, 27.55725
1389.381, 7.957642
1390.435, 46.19336
1391.490, 7.604004
1392.544, 8.063721
1393.598, 18.35693
1394.652, 15.22778
1395.705, 23.07764
1396.759, 32.32971
1397.812, 72.73206
1398.866, 30.11743
1399.919, 68.51440
1400.972, 16.90881
1402.024, 70.30249
1403.077, 70.69446
1404.129, 84.08289
1405.181, 70.47302
1406.233, 70.86926
1407.285, 103.2550
1408.337, 147.6317
1409.389, 160.0004
1410.440, 225.3652
1411.491, 291.7590
1412.542, 385.1128
1413.593, 471.5043
1414.644, 589.9030
1415.695, 790.3108
1416.745, 837.7297
1417.795, 905.1490
1418.845, 919.5759
1419.895, 880.0144
1420.945, 708.3909
1421.995, 573.8038
1423.044, 487.2126
1424.093, 415.1952
1425.142, 448.9946
1426.191, 383.4497
1427.240, 399.9133
1428.289, 465.3787
1429.337, 392.7535
1430.385, 391.2335
1431.433, 318.7245
1432.481, 297.1649
1433.529, 283.6661
1434.577, 217.6351
1435.624, 158.1858
1436.672, 143.4740
1437.719, 118.7689
1438.766, 113.9176
1439.812, 119.5106
1440.859, 122.4030
1441.905, 131.0580
1442.952, 137.2495
1443.998, 146.5343
1445.044, 158.4270
1446.090, 166.6001
1447.135, 189.3474
1448.181, 198.4125
1449.226, 236.8203
1450.271, 320.2389
1451.316, 444.3842
1452.361, 532.6565
1453.405, 719.0703
1454.450, 1034.470
1455.494, 1371.443
1456.538, 1707.798
1457.582, 1783.090
1458.626, 1673.178
1459.670, 1386.151
1460.713, 1036.180
1461.757, 815.2593
1462.800, 602.3489
1463.843, 490.6143
1464.886, 319.6477
1465.928, 289.7926
1466.971, 242.1167
1468.013, 298.3329
1469.055, 242.9490
1470.097, 298.1863
1471.139, 231.3744
1472.181, 267.6299
1473.222, 249.8162
1474.263, 290.1843
1475.305, 314.6011
1476.346, 314.9651
1477.386, 255.2534
1478.427, 283.1337
1479.468, 298.6207
1480.508, 283.6549
1481.548, 308.8204
1482.588, 282.0809
1483.628, 319.9377
1484.668, 286.5167
1485.707, 330.9111
1486.747, 258.2946
1487.786, 229.5990
1488.825, 237.0557
1489.864, 248.5134
1490.902, 233.9727
1491.941, 190.4335
1492.979, 199.8960
1494.017, 165.3601
1495.055, 190.8248
1496.093, 138.2900
1497.131, 137.7559
1498.168, 164.2222
1499.206, 148.6902
1500.243, 155.1575
1501.280, 146.6244
1502.317, 103.0903
1503.354, 129.5548
1504.390, 101.0011
1505.426, 71.42224
1506.463, 90.83252
1507.499, 161.2299
1508.535, 120.6188
1509.570, 142.0085
1510.606, 123.4197
1511.641, 117.8413
1512.676, 128.2682
1513.711, 98.69592
1514.746, 106.1321
1515.781, 149.5737
1516.816, 171.0302
1517.850, 142.5310
1518.884, 170.0750
1519.918, 130.6331
1520.952, 180.2086
1521.986, 140.8042
1523.019, 98.41382
1524.053, 160.0337
1525.086, 151.6628
1526.119, 113.3489
1527.152, 98.06836
1528.185, 156.8134
1529.217, 140.6011
1530.250, 156.4070
1531.282, 144.2301
1532.314, 130.0691
1533.346, 127.9252
1534.377, 125.7998
1535.409, 107.6938
1536.440, 151.6089
1537.472, 109.5472
1538.503, 144.5111
1539.534, 141.5049
1540.564, 121.5336
1541.595, 112.6008
1542.625, 79.70911
1543.656, 82.86182
1544.686, 45.06262
1545.716, 60.31226
1546.745, 83.61157
1547.775, 91.96338
1548.804, 89.37183
1549.834, 75.83887
1550.863, 166.3654
1551.892, 203.9539
1552.920, 301.6102
1553.949, 372.3408
1554.977, 523.1538
1556.006, 320.0573
1557.034, 83.05957
1558.062, 0.1689450
1559.089, 7.948364
1560.117, 2.626465
1561.144, 39.82764
1562.172, 25.82129
1563.199, 43.96155
1564.226, 23.11694
1565.252, 59.72449
1566.279, 8.541748
1567.305, 21.32727
1568.332, 18.51990
1569.358, 0.8416750
1570.384, 15.88989
1571.409, 0.0000000E+00
##END=



