##NAMES=Azurite
##RRUFFID=R050497
##IDEAL CHEMISTRY=Cu_3_(CO_3_)_2_(OH)_2_
##LOCALITY=Tsumeb mine, Tsumeb, Otavi District, Oshikoto, Namibia
##OWNER=RRUFF
##SOURCE=Marcus Origlieri
##DESCRIPTION=Blue prismatic single crystal
##STATUS=The identification of this mineral has been confirmed by X-ray diffraction and chemical analysis
##URL=rruff.info/R050497
##MEASURED CHEMISTRY=Cu_3.00_(CO_3_)_2_(OH)_2_
##PIN_ID=L01397
##ORIENTATION=Laser parallel to (-1 0 -1). Fiducial mark perpendicular to laser is parallel to -b [0 -1 0]
52.67100, 0.0000000E+00
53.91000, 29.00409
55.14900, 79.84131
56.38700, 68.84924
57.62600, 53.36139
58.86400, 95.20459
60.10300, 105.7062
61.34100, 64.92664
62.57900, 15.41791
63.81700, 13.04730
65.05400, 28.71741
66.29200, 39.83435
67.52900, 3.618835
68.76700, 86.73389
70.00400, 252.0642
71.24100, 534.2330
72.47700, 597.1088
73.71400, 495.5608
74.95100, 594.4648
76.18700, 969.7104
77.42300, 1329.199
78.65900, 1690.846
79.89500, 2441.576
81.13100, 3917.323
82.36700, 6255.029
83.60200, 7863.645
84.83700, 6639.146
86.07200, 4349.534
87.30800, 2761.758
88.54200, 2081.774
89.77700, 1728.542
91.01200, 1580.006
92.24600, 1764.108
93.48000, 1800.792
94.71400, 1700.016
95.94800, 1624.749
97.18200, 1670.966
98.41600, 1547.645
99.64900, 1646.767
100.8830, 1816.318
102.1160, 1975.283
103.3490, 2038.650
104.5820, 2393.411
105.8150, 2958.554
107.0470, 4102.070
108.2800, 6254.949
109.5120, 9908.184
110.7440, 16372.77
111.9760, 22173.70
113.2080, 21441.96
114.4400, 14022.56
115.6710, 8394.724
116.9030, 5330.708
118.1340, 4628.112
119.3650, 4482.779
120.5960, 2125.706
121.8270, 1728.892
123.0580, 1609.335
124.2880, 1758.032
125.5190, 1531.982
126.7490, 1416.130
127.9790, 1627.308
129.2090, 2277.507
130.4390, 3404.727
131.6680, 4095.979
132.8980, 3613.248
134.1270, 2707.556
135.3560, 2389.957
136.5850, 2622.462
137.8140, 3146.083
139.0430, 4111.827
140.2710, 4663.703
141.5000, 5484.718
142.7280, 5452.774
143.9560, 6419.185
145.1840, 5042.644
146.4120, 3945.259
147.6390, 3399.031
148.8670, 3535.962
150.0940, 4529.054
151.3210, 6580.306
152.5490, 10311.72
153.7750, 13513.30
155.0020, 12657.04
156.2290, 8283.939
157.4550, 4964.005
158.6810, 2957.232
159.9080, 1912.623
161.1340, 1389.175
162.3590, 1140.889
163.5850, 1057.762
164.8110, 1155.795
166.0360, 1311.988
167.2610, 1626.338
168.4860, 2023.846
169.7110, 2690.511
170.9360, 3208.331
172.1610, 3275.307
173.3850, 3162.438
174.6100, 3687.723
175.8340, 5033.786
177.0580, 7732.069
178.2820, 10790.10
179.5050, 10793.08
180.7290, 7723.302
181.9520, 4765.329
183.1760, 3068.286
184.3990, 2284.389
185.6220, 1946.647
186.8450, 1873.063
188.0670, 2136.639
189.2900, 2546.366
190.5120, 3356.239
191.7340, 4265.257
192.9560, 5121.421
194.1780, 5407.728
195.4000, 4969.177
196.6220, 4232.773
197.8430, 3389.521
199.0640, 2709.410
200.2860, 2258.818
201.5070, 2122.127
202.7270, 2017.327
203.9480, 1969.479
205.1690, 1594.370
206.3890, 1288.291
207.6090, 1149.635
208.8290, 1398.228
210.0490, 1667.458
211.2690, 2161.338
212.4890, 2417.346
213.7080, 2465.612
214.9280, 2470.629
216.1470, 2092.941
217.3660, 1761.506
218.5850, 1414.303
219.8030, 1021.321
221.0220, 733.5630
222.2400, 580.0154
223.4590, 420.6917
224.6770, 326.5696
225.8950, 336.6353
227.1120, 415.8904
228.3300, 605.3477
229.5480, 802.9941
230.7650, 1309.823
231.9820, 2088.830
233.1990, 3279.004
234.4160, 5290.340
235.6330, 7871.829
236.8490, 9130.466
238.0660, 8005.240
239.2820, 5734.156
240.4980, 3876.205
241.7140, 2736.387
242.9300, 2296.700
244.1460, 2465.143
245.3610, 3294.712
246.5770, 4596.406
247.7920, 5007.224
249.0070, 4266.162
250.2220, 2654.220
251.4370, 1587.396
252.6510, 786.6885
253.8660, 425.0955
255.0800, 178.6162
256.2940, 12.24878
257.5080, 14.99170
258.7220, 49.84351
259.9360, 513.8025
261.1490, 983.8684
262.3630, 816.0374
263.5760, 926.3069
264.7890, 1047.674
266.0020, 913.1392
267.2150, 738.7002
268.4270, 493.3557
269.6400, 343.1060
270.8520, 277.9495
272.0640, 276.8372
273.2760, 305.9106
274.4880, 551.0281
275.7000, 771.2371
276.9120, 1160.537
278.1230, 1597.929
279.3340, 2000.412
280.5450, 2173.987
281.7560, 2263.653
282.9670, 2132.409
284.1780, 1864.258
285.3880, 1526.196
286.5980, 1383.224
287.8090, 1252.341
289.0190, 1163.548
290.2290, 1109.846
291.4380, 910.2349
292.6480, 714.7153
293.8570, 445.2864
295.0670, 289.9458
296.2760, 135.6980
297.4850, 40.46094
298.6930, 60.52979
299.9020, 118.5105
301.1110, 256.4160
302.3190, 229.2537
303.5270, 267.0247
304.7350, 216.7307
305.9430, 168.3689
307.1510, 135.9390
308.3580, 115.4329
309.5660, 42.84375
310.7730, 6.822998
311.9800, 36.36255
313.1870, 197.1833
314.3940, 297.1255
315.6010, 512.1548
316.8070, 738.7854
318.0130, 983.9211
319.2200, 1345.197
320.4260, 1772.280
321.6310, 2252.712
322.8370, 2953.205
324.0430, 3737.711
325.2480, 4898.238
326.4540, 6211.809
327.6590, 7715.446
328.8640, 9214.162
330.0680, 10624.96
331.2730, 10942.83
332.4780, 10483.77
333.6820, 9193.787
334.8860, 7644.881
336.0900, 5996.038
337.2940, 4530.270
338.4980, 3471.670
339.7010, 2666.427
340.9050, 2042.863
342.1080, 1651.479
343.3110, 1303.048
344.5140, 1095.680
345.7170, 1033.407
346.9200, 891.6240
348.1220, 815.5293
349.3240, 742.5327
350.5270, 777.3728
351.7290, 860.8101
352.9310, 953.5784
354.1320, 1114.659
355.3340, 1342.438
356.5350, 1542.747
357.7370, 1860.174
358.9380, 2186.425
360.1390, 2524.637
361.3400, 2962.166
362.5400, 3315.753
363.7410, 3655.559
364.9410, 3834.428
366.1410, 4032.986
367.3410, 4058.696
368.5410, 4083.516
369.7410, 4127.391
370.9400, 4355.743
372.1400, 4551.588
373.3390, 5022.287
374.5380, 5502.231
375.7370, 6139.456
376.9360, 6811.969
378.1350, 7547.328
379.3330, 8423.287
380.5310, 9252.793
381.7300, 10041.84
382.9280, 10896.95
384.1260, 11405.12
385.3230, 12083.34
386.5210, 13113.64
387.7180, 13951.99
388.9160, 15160.40
390.1130, 16924.87
391.3100, 19011.39
392.5060, 21324.97
393.7030, 24230.60
394.9000, 28031.29
396.0960, 32760.04
397.2920, 38395.84
398.4880, 44121.68
399.6840, 47538.58
400.8800, 46700.54
402.0750, 42400.55
403.2710, 35796.59
404.4660, 29484.70
405.6610, 24066.85
406.8560, 19759.04
408.0510, 16263.28
409.2450, 13705.56
410.4400, 11733.88
411.6340, 9842.250
412.8280, 8573.661
414.0220, 7206.112
415.2160, 6213.606
416.4100, 5554.138
417.6030, 4742.710
418.7970, 4152.320
419.9900, 3669.969
421.1830, 3284.654
422.3760, 2967.377
423.5690, 2692.136
424.7610, 2468.930
425.9540, 2137.760
427.1460, 1986.793
428.3380, 1790.691
429.5300, 1706.623
430.7220, 1455.586
431.9140, 1371.838
433.1050, 1213.567
434.2970, 1052.147
435.4880, 978.4111
436.6790, 917.2886
437.8700, 829.0264
439.0610, 702.9736
440.2510, 621.0339
441.4420, 448.8894
442.6320, 370.4399
443.8220, 323.2573
445.0120, 280.5898
446.2020, 232.6731
447.3910, 137.6423
448.5810, 108.3479
449.7700, 89.47119
450.9600, 56.50903
452.1490, 53.38989
453.3370, 18.66626
454.5260, 13.19702
455.7150, 29.67212
456.9030, 83.61890
458.0910, 100.0403
459.2800, 3.465332
460.4670, 2.728760
461.6550, 24.86914
462.8430, 14.21387
464.0300, 81.00562
465.2180, 98.66333
466.4050, 138.8303
467.5920, 71.74536
468.7790, 84.72266
469.9650, 102.1509
471.1520, 79.58813
472.3380, 77.76978
473.5250, 83.81128
474.7110, 31.34912
475.8970, 49.12891
477.0820, 23.41187
478.2680, 41.72632
479.4540, 19.31616
480.6390, 16.61670
481.8240, 2.347656
483.0090, 89.66968
484.1940, 12.71509
485.3780, 44.65942
486.5630, 44.20630
487.7470, 33.60864
488.9320, 4.865967
490.1160, 57.42407
491.3000, 23.39111
492.4830, 3.254883
493.6670, 53.48315
494.8500, 37.57227
496.0340, 11.85596
497.2170, 2.485596
498.4000, 0.2690430
499.5820, 42.26392
500.7650, 16.79688
501.9480, 22.33984
503.1300, 99.13989
504.3120, 38.21094
505.4940, 19.09277
506.6760, 74.10498
507.8580, 35.78540
509.0390, 127.7380
510.2210, 51.61572
511.4020, 9.950928
512.5830, 40.29761
513.7640, 119.6223
514.9450, 80.04272
516.1250, 64.10327
517.3060, 67.31738
518.4860, 31.86230
519.6660, 26.75928
520.8460, 3.156738
522.0260, 17.24023
523.2060, 73.84204
524.3850, 101.9697
525.5650, 159.8052
526.7440, 214.2983
527.9230, 307.9495
529.1020, 419.3401
530.2810, 479.1885
531.4590, 609.4575
532.6380, 780.1187
533.8160, 950.3439
534.9940, 1165.707
536.1720, 1502.658
537.3500, 1735.396
538.5270, 2092.501
539.7050, 2242.082
540.8820, 2240.177
542.0590, 2182.270
543.2360, 2033.761
544.4130, 1737.215
545.5900, 1460.985
546.7660, 1251.938
547.9430, 1029.045
549.1190, 835.0873
550.2950, 693.0522
551.4710, 539.9333
552.6470, 443.7456
553.8220, 443.5776
554.9980, 380.6157
556.1730, 340.4458
557.3480, 219.2056
558.5230, 207.7531
559.6980, 187.2598
560.8730, 168.7419
562.0470, 191.3280
563.2220, 160.7925
564.3960, 151.2048
565.5700, 176.6682
566.7440, 143.0234
567.9170, 61.35242
569.0910, 110.6523
570.2640, 85.92529
571.4380, 115.1713
572.6110, 61.38965
573.7840, 42.57703
574.9570, 50.72925
576.1290, 29.84766
577.3020, 43.92603
578.4740, 50.96802
579.6460, 16.97461
580.8180, 43.93506
581.9900, 9.857666
583.1620, 9.733643
584.3330, 49.56409
585.5040, 14.63293
586.6760, 6.136475
587.8470, 14.12170
589.0180, 3.587769
590.1880, 32.26587
591.3590, 8.916016
592.5290, 11.47388
593.7000, 18.08240
594.8700, 6.148926
596.0400, 21.30115
597.2090, 21.29773
598.3790, 4.031372
599.5490, 26.30676
600.7180, 18.39661
601.8870, 24.24353
603.0560, 45.36389
604.2250, 11.71021
605.3940, 25.72864
606.5620, 40.69458
607.7300, 1.612549
608.8990, 21.46716
610.0670, 12.26672
611.2350, 13.00745
612.4020, 19.68896
613.5700, 53.31384
614.7370, 38.89172
615.9050, 65.41833
617.0720, 20.90027
618.2390, 90.32446
619.4060, 41.70825
620.5720, 60.04041
621.7390, 118.2244
622.9050, 22.07776
624.0710, 62.26672
625.2370, 67.29565
626.4030, 85.39136
627.5690, 52.44397
628.7340, 102.4463
629.9000, 88.00647
631.0650, 70.92517
632.2300, 143.7928
633.3950, 108.1147
634.5600, 118.9092
635.7240, 91.66467
636.8890, 101.1621
638.0530, 109.9875
639.2170, 69.84314
640.3810, 115.7303
641.5450, 73.06140
642.7080, 105.7190
643.8720, 115.5243
645.0350, 99.30957
646.1980, 104.9106
647.3610, 78.73523
648.5240, 91.40344
649.6870, 76.20178
650.8490, 101.9221
652.0120, 100.6180
653.1740, 94.01624
654.3360, 89.77295
655.4980, 57.61841
656.6600, 60.36182
657.8210, 19.85095
658.9830, 4.926636
660.1440, 27.46997
661.3050, 38.28455
662.4660, 53.57861
663.6270, 24.35242
664.7870, 39.08386
665.9480, 7.775513
667.1080, 1.421875
668.2680, 11.02087
669.4280, 36.57532
670.5880, 15.08936
671.7480, 46.55957
672.9070, 15.99097
674.0670, 9.378906
675.2260, 27.72192
676.3850, 39.02344
677.5440, 83.28516
678.7030, 1.487427
679.8610, 17.69250
681.0200, 16.82959
682.1780, 48.92346
683.3360, 49.97937
684.4940, 29.99756
685.6520, 87.97510
686.8090, 78.91919
687.9670, 69.82861
689.1240, 80.70288
690.2810, 87.54309
691.4380, 93.34985
692.5950, 88.49988
693.7520, 67.86475
694.9080, 83.57043
696.0650, 89.24292
697.2210, 111.8826
698.3770, 122.4911
699.5330, 133.0691
700.6880, 98.61646
701.8440, 110.1322
702.9990, 115.6171
704.1550, 104.0717
705.3100, 118.7964
706.4650, 121.7100
707.6190, 135.0833
708.7740, 146.4175
709.9290, 157.7222
711.0830, 185.9972
712.2370, 195.9816
713.3910, 220.7028
714.5450, 231.1691
715.6980, 271.1534
716.8520, 298.5254
718.0050, 333.0377
719.1580, 357.3411
720.3110, 387.5314
721.4640, 456.4023
722.6170, 490.2117
723.7700, 594.3928
724.9220, 563.7136
726.0740, 717.1812
727.2260, 718.4136
728.3780, 803.6372
729.5300, 963.0094
730.6810, 1017.510
731.8330, 1182.668
732.9840, 1331.248
734.1350, 1476.629
735.2860, 1604.703
736.4370, 1871.973
737.5880, 2066.947
738.7380, 2382.729
739.8880, 2538.274
741.0390, 2692.869
742.1890, 2805.380
743.3380, 2765.339
744.4880, 2714.861
745.6380, 2647.879
746.7870, 2445.142
747.9360, 2333.342
749.0850, 2132.092
750.2340, 2075.828
751.3830, 2154.813
752.5310, 2300.930
753.6800, 2473.553
754.8280, 2757.926
755.9760, 3101.787
757.1240, 3486.611
758.2720, 4102.150
759.4190, 4758.201
760.5670, 5387.342
761.7140, 6132.112
762.8610, 6792.148
764.0080, 7045.276
765.1550, 7105.787
766.3020, 6807.436
767.4480, 6449.217
768.5950, 5715.682
769.7410, 5018.727
770.8870, 4497.863
772.0330, 3763.618
773.1780, 3352.500
774.3240, 2885.885
775.4690, 2547.453
776.6140, 2166.154
777.7590, 1878.049
778.9040, 1644.861
780.0490, 1469.854
781.1940, 1334.485
782.3380, 1166.625
783.4820, 1039.683
784.6260, 901.7388
785.7700, 806.1187
786.9140, 679.7413
788.0580, 598.2391
789.2010, 614.1608
790.3450, 524.0686
791.4880, 480.9224
792.6310, 411.8218
793.7730, 458.3197
794.9160, 398.9326
796.0590, 299.8369
797.2010, 363.0610
798.3430, 275.2328
799.4850, 275.6278
800.6270, 231.2731
801.7690, 266.3721
802.9100, 202.7427
804.0520, 207.4344
805.1930, 247.9471
806.3340, 196.6987
807.4750, 236.9712
808.6160, 158.8011
809.7560, 197.2168
810.8970, 152.0463
812.0370, 135.7156
813.1770, 105.7740
814.3170, 189.0237
815.4570, 177.8828
816.5960, 207.2423
817.7360, 272.0660
818.8750, 264.8673
820.0140, 302.2472
821.1530, 367.6399
822.2920, 455.6934
823.4310, 498.5398
824.5690, 663.2869
825.7070, 842.9153
826.8460, 874.2590
827.9840, 954.9460
829.1220, 985.3594
830.2590, 970.1787
831.3970, 996.7671
832.5340, 959.5378
833.6710, 1095.354
834.8080, 1162.356
835.9450, 1377.374
837.0820, 1391.390
838.2190, 1428.277
839.3550, 1546.259
840.4910, 1453.267
841.6270, 1305.198
842.7630, 1206.210
843.8990, 1005.223
845.0350, 875.2361
846.1700, 729.2499
847.3060, 619.2639
848.4410, 512.2782
849.5760, 425.3420
850.7100, 348.3779
851.8450, 281.3407
852.9800, 231.2974
854.1140, 184.8903
855.2480, 154.4509
856.3820, 116.5024
857.5160, 91.52405
858.6500, 72.52734
859.7830, 51.71118
860.9170, 45.79907
862.0500, 35.07788
863.1830, 26.02637
864.3160, 29.16626
865.4480, 4.400269
866.5810, 11.43518
867.7130, 5.257324
868.8460, 47.05981
869.9780, 3.857544
871.1100, 24.53271
872.2410, 40.89392
873.3730, 55.85144
874.5050, 22.40979
875.6360, 14.28760
876.7670, 18.99951
877.8980, 19.53198
879.0290, 20.77747
880.1590, 15.01172
881.2900, 41.04199
882.4200, 95.39380
883.5500, 94.92651
884.6800, 135.5260
885.8100, 50.93188
886.9400, 47.78442
888.0690, 90.22681
889.1990, 117.7325
890.3280, 51.20618
891.4570, 109.0641
892.5860, 181.8876
893.7140, 107.4022
894.8430, 148.9309
895.9710, 186.4835
897.1000, 137.0430
898.2280, 197.6198
899.3560, 246.2086
900.4830, 233.8087
901.6110, 271.4185
902.7380, 257.0420
903.8660, 252.7168
904.9930, 307.3589
906.1200, 252.0140
907.2460, 301.6764
908.3730, 353.3535
909.5000, 403.0387
910.6260, 391.7346
911.7520, 455.4402
912.8780, 486.1547
914.0040, 524.8818
915.1290, 606.6178
916.2550, 676.3655
917.3800, 696.1230
918.5050, 805.8889
919.6300, 911.6641
920.7550, 957.4482
921.8800, 1058.243
923.0040, 1175.050
924.1290, 1354.868
925.2530, 1591.694
926.3770, 1883.536
927.5010, 2105.387
928.6250, 2496.246
929.7480, 2821.116
930.8720, 3260.996
931.9950, 3735.888
933.1180, 4218.796
934.2410, 4550.718
935.3640, 4886.656
936.4860, 4917.607
937.6090, 4989.569
938.7310, 4924.543
939.8530, 4672.537
940.9750, 4310.546
942.0970, 4044.573
943.2180, 3673.611
944.3400, 3149.663
945.4610, 2748.733
946.5820, 2394.816
947.7030, 2023.923
948.8240, 1741.040
949.9450, 1553.170
951.0650, 1332.309
952.1860, 1202.466
953.3060, 994.6345
954.4260, 907.8230
955.5460, 806.0239
956.6650, 752.2356
957.7850, 719.4633
958.9040, 639.6997
960.0230, 601.9451
961.1420, 534.2026
962.2610, 563.4814
963.3800, 505.7812
964.4990, 436.0947
965.6170, 470.4213
966.7350, 423.7578
967.8530, 376.1042
968.9710, 344.4597
970.0890, 313.1154
971.2070, 305.7415
972.3240, 271.5878
973.4410, 302.9808
974.5580, 299.3822
975.6750, 286.7921
976.7920, 262.2123
977.9090, 225.6421
979.0250, 205.0798
980.1410, 190.8674
981.2580, 170.4882
982.3740, 175.4413
983.4890, 150.9116
984.6050, 149.3905
985.7200, 152.8776
986.8360, 117.3727
987.9510, 75.87585
989.0660, 86.38721
990.1810, 108.9067
991.2950, 59.43579
992.4100, 89.97253
993.5240, 93.51697
994.6390, 99.06934
995.7530, 48.62891
996.8660, 16.19617
997.9800, 12.77087
999.0940, 1.646851
1000.207, 37.94153
1001.320, 24.42944
1002.433, 33.00183
1003.546, 10.72339
1004.659, 2.684082
1005.772, 6.345093
1006.884, 17.28979
1007.996, 7.507324
1009.108, 0.3961180
1010.220, 18.89990
1011.332, 5.438843
1012.444, 5.004883
1013.555, 49.32300
1014.666, 64.66138
1015.777, 22.98279
1016.888, 32.36682
1017.999, 54.32715
1019.110, 18.30774
1020.220, 13.05200
1021.331, 28.24121
1022.441, 50.11108
1023.551, 11.97021
1024.661, 10.04114
1025.770, 8.398438
1026.880, 19.24585
1027.989, 15.89673
1029.098, 57.39355
1030.207, 38.05371
1031.316, 49.71875
1032.425, 6.428589
1033.533, 20.10168
1034.642, 34.77893
1035.750, 39.46106
1036.858, 2.146973
1037.966, 45.83618
1039.073, 33.78552
1040.181, 78.50586
1041.288, 61.51038
1042.396, 32.23889
1043.503, 38.97937
1044.610, 62.69116
1045.716, 76.40625
1046.823, 37.12476
1047.929, 64.84644
1049.036, 55.57178
1050.142, 51.30017
1051.248, 83.03162
1052.353, 65.76611
1053.459, 119.5034
1054.564, 116.2438
1055.670, 116.5529
1056.775, 148.5223
1057.880, 108.2726
1058.985, 116.6272
1060.089, 145.5334
1061.194, 183.3568
1062.298, 142.1293
1063.402, 168.8923
1064.506, 183.9446
1065.610, 230.5764
1066.713, 240.4718
1067.817, 219.0598
1068.920, 275.0730
1070.023, 253.9731
1071.126, 312.7618
1072.229, 325.3766
1073.332, 363.1565
1074.435, 411.9304
1075.537, 390.7213
1076.639, 468.5814
1077.741, 576.1853
1078.843, 551.2123
1079.945, 654.7590
1081.046, 726.6151
1082.148, 875.5183
1083.249, 1018.594
1084.350, 1141.655
1085.451, 1311.475
1086.551, 1547.641
1087.652, 1939.757
1088.752, 2416.675
1089.853, 3085.264
1090.953, 3872.089
1092.053, 4858.884
1093.152, 5962.187
1094.252, 7156.803
1095.351, 8237.403
1096.451, 8250.306
1097.550, 7259.076
1098.649, 5793.959
1099.748, 4310.930
1100.846, 3218.822
1101.945, 2482.526
1103.043, 1925.423
1104.141, 1511.392
1105.239, 1202.178
1106.337, 981.0718
1107.434, 759.0044
1108.532, 688.1992
1109.629, 628.3318
1110.726, 545.1396
1111.823, 493.9767
1112.920, 406.8264
1114.017, 404.7601
1115.113, 384.6143
1116.210, 290.5646
1117.306, 271.4818
1118.402, 248.3066
1119.498, 226.2321
1120.593, 211.1155
1121.689, 200.0114
1122.784, 205.1974
1123.879, 227.9799
1124.974, 242.7998
1126.069, 117.7115
1127.164, 134.4493
1128.259, 133.3230
1129.353, 206.1083
1130.447, 93.03137
1131.541, 92.70752
1132.635, 49.65063
1133.729, 21.51465
1134.822, 70.50354
1135.916, 70.39917
1137.009, 20.28748
1138.102, 35.97974
1139.195, 80.72070
1140.288, 72.45386
1141.380, 69.13110
1142.473, 28.18945
1143.565, 21.72095
1144.657, 59.52856
1145.749, 36.45642
1146.841, 31.45471
1147.932, 31.24390
1149.024, 5.324951
1150.115, 30.86951
1151.206, 17.72144
1152.297, 1.229248
1153.388, 18.61731
1154.479, 16.67395
1155.569, 14.93408
1156.659, 45.43823
1157.750, 46.75293
1158.839, 14.58508
1159.929, 40.68774
1161.019, 19.04077
1162.108, 14.61804
1163.198, 12.23706
1164.287, 50.80554
1165.376, 74.37024
1166.465, 66.08020
1167.553, 42.63708
1168.642, 25.14685
1169.730, 5.705688
1170.818, 14.24756
1171.906, 14.09644
1172.994, 15.42517
1174.082, 14.17236
1175.170, 34.45496
1176.257, 51.96326
1177.344, 41.47302
1178.431, 90.97278
1179.518, 38.57019
1180.605, 41.06104
1181.691, 29.54724
1182.778, 52.02893
1183.864, 41.50610
1184.950, 38.38770
1186.036, 0.5534670
1187.122, 6.942383
1188.207, 30.39307
1189.292, 19.16113
1190.378, 9.286377
1191.463, 16.84583
1192.548, 30.44275
1193.632, 51.17761
1194.717, 10.79956
1195.801, 28.19397
1196.886, 10.58191
1197.970, 22.97363
1199.054, 6.384644
1200.137, 10.84595
1201.221, 36.18835
1202.305, 23.47583
1203.388, 44.83765
1204.471, 8.855225
1205.554, 39.67041
1206.637, 24.09155
1207.719, 23.43738
1208.802, 5.998291
1209.884, 22.55505
1210.966, 28.78540
1212.048, 18.31116
1213.130, 4.356812
1214.212, 7.715942
1215.293, 20.06165
1216.374, 16.47156
1217.456, 3.046997
1218.536, 19.29590
1219.617, 6.200073
1220.698, 42.98401
1221.778, 58.37744
1222.859, 1.199219
1223.939, 41.86316
1225.019, 41.69592
1226.099, 12.60120
1227.178, 10.26770
1228.258, 32.85767
1229.337, 11.90393
1230.417, 31.31396
1231.496, 9.650879
1232.574, 30.53955
1233.653, 13.67578
1234.732, 76.75769
1235.810, 31.77075
1236.888, 22.92493
1237.966, 1.037842
1239.044, 4.3457001E-02
1240.122, 53.19836
1241.199, 46.18579
1242.277, 43.17090
1243.354, 23.15137
1244.431, 42.12805
1245.508, 19.10107
1246.585, 27.06921
1247.661, 49.03357
1248.738, 24.99536
1249.814, 34.95361
1250.890, 31.90820
1251.966, 3.140991
1253.042, 58.80310
1254.117, 49.74463
1255.193, 27.68359
1256.268, 69.61865
1257.343, 36.55127
1258.418, 57.48010
1259.493, 24.40576
1260.567, 64.32654
1261.642, 19.24475
1262.716, 38.15820
1263.790, 8.056641
1264.864, 19.03955
1265.938, 7.851318
1267.011, 32.69971
1268.085, 67.58289
1269.158, 70.46216
1270.231, 83.94617
1271.304, 1.788696
1272.377, 86.07849
1273.450, 51.92566
1274.522, 44.78577
1275.594, 92.64893
1276.666, 55.52026
1277.738, 8.613037
1278.810, 61.85889
1279.882, 103.7269
1280.953, 38.59131
1282.025, 104.8019
1283.096, 57.65930
1284.167, 58.07544
1285.238, 53.58508
1286.308, 79.43958
1287.379, 31.29163
1288.449, 56.13696
1289.519, 47.13647
1290.589, 88.97290
1291.659, 72.80542
1292.729, 97.59473
1293.798, 102.2509
1294.868, 50.24585
1295.937, 94.06580
1297.006, 118.8866
1298.075, 85.70325
1299.143, 101.2615
1300.212, 61.04675
1301.280, 103.5460
1302.348, 92.31873
1303.416, 121.0764
1304.484, 115.8583
1305.552, 90.63074
1306.620, 154.3936
1307.687, 69.14929
1308.754, 161.8978
1309.821, 111.6450
1310.888, 123.3856
1311.955, 131.1184
1313.021, 109.8462
1314.088, 117.3724
1315.154, 89.69897
1316.220, 107.1580
1317.286, 101.8170
1318.352, 94.84399
1319.417, 67.28296
1320.483, 57.76013
1321.548, 24.22974
1322.613, 50.62769
1323.678, 112.8995
1324.743, 126.2539
1325.807, 90.50818
1326.872, 141.0664
1327.936, 79.19617
1329.000, 118.4340
1330.064, 116.7778
1331.128, 135.2911
1332.191, 115.6349
1333.255, 51.97986
1334.318, 76.30127
1335.381, 63.54773
1336.444, 66.04541
1337.507, 62.11353
1338.569, 81.65771
1339.632, 105.8866
1340.694, 81.06299
1341.756, 74.06213
1342.818, 76.54590
1343.880, 46.96875
1344.941, 30.26746
1346.003, 93.78711
1347.064, 32.49756
1348.125, 106.6276
1349.186, 56.48669
1350.247, 49.47083
1351.308, 68.97949
1352.368, 101.2220
1353.428, 110.3721
1354.489, 50.40088
1355.549, 97.41541
1356.608, 116.4031
1357.668, 29.25476
1358.727, 151.2885
1359.787, 79.70605
1360.846, 92.63135
1361.905, 105.6470
1362.964, 122.7991
1364.022, 88.67749
1365.081, 116.5962
1366.139, 105.2139
1367.197, 86.90088
1368.255, 169.1921
1369.313, 154.5155
1370.371, 136.3400
1371.428, 174.4100
1372.486, 143.4707
1373.543, 212.2585
1374.600, 222.3381
1375.657, 181.6094
1376.713, 176.7208
1377.770, 268.8104
1378.826, 265.7863
1379.882, 290.6050
1380.938, 281.8092
1381.994, 325.0250
1383.050, 337.1187
1384.106, 366.2550
1385.161, 414.2673
1386.216, 366.3247
1387.271, 418.1392
1388.326, 433.1876
1389.381, 358.9983
1390.435, 398.9237
1391.490, 417.6460
1392.544, 466.6201
1393.598, 439.3973
1394.652, 459.2759
1395.705, 471.1675
1396.759, 866.1062
1397.812, 1611.094
1398.866, 1335.804
1399.919, 1433.734
1400.972, 2570.422
1402.024, 3506.994
1403.077, 858.8245
1404.129, 1029.539
1405.181, 1174.830
1406.233, 1297.454
1407.285, 1450.210
1408.337, 1677.839
1409.389, 1932.581
1410.440, 2301.317
1411.491, 2830.967
1412.542, 3308.516
1413.593, 4101.182
1414.644, 5162.611
1415.695, 6695.111
1416.745, 8428.698
1417.795, 10497.44
1418.845, 12135.33
1419.895, 12489.14
1420.945, 11429.91
1421.995, 9767.612
1423.044, 8078.332
1424.093, 6855.770
1425.142, 6339.703
1426.191, 6383.907
1427.240, 7052.081
1428.289, 8133.027
1429.337, 9315.976
1430.385, 9804.475
1431.433, 9096.638
1432.481, 7669.833
1433.529, 6168.532
1434.577, 4615.415
1435.624, 3551.456
1436.672, 2770.284
1437.719, 2087.780
1438.766, 1755.007
1439.812, 1425.879
1440.859, 1159.461
1441.905, 959.3916
1442.952, 860.4731
1443.998, 778.6124
1445.044, 685.7372
1446.090, 635.8782
1447.135, 560.5688
1448.181, 532.0155
1449.226, 510.8989
1450.271, 459.9344
1451.316, 472.9335
1452.361, 531.0444
1453.405, 566.1680
1454.450, 725.9082
1455.494, 898.6440
1456.538, 1197.451
1457.582, 1740.444
1458.626, 2129.252
1459.670, 2183.705
1460.713, 1801.361
1461.757, 1318.162
1462.800, 944.7167
1463.843, 638.7502
1464.886, 403.4906
1465.928, 264.1858
1466.971, 288.1030
1468.013, 173.9836
1469.055, 205.8842
1470.097, 173.7997
1471.139, 133.6393
1472.181, 135.6553
1473.222, 114.7885
1474.263, 123.6256
1475.305, 101.5743
1476.346, 94.49890
1477.386, 83.40149
1478.427, 110.2751
1479.468, 67.12073
1480.508, 102.9404
1481.548, 82.73401
1482.588, 94.50305
1483.628, 70.25818
1484.668, 23.98669
1485.707, 95.68530
1486.747, 57.35596
1487.786, 68.99976
1488.825, 108.6155
1489.864, 90.20923
1490.902, 99.77393
1491.941, 98.30811
1492.979, 31.81152
1494.017, 17.28503
1495.055, 133.7295
1496.093, 55.13721
1497.131, 76.50391
1498.168, 118.8234
1499.206, 57.09631
1500.243, 33.33521
1501.280, 47.54956
1502.317, 62.75195
1503.354, 86.94849
1504.390, 55.11328
1505.426, 59.24756
1506.463, 47.36011
1507.499, 54.51294
1508.535, 85.77063
1509.570, 83.26086
1510.606, 94.19189
1511.641, 120.2786
1512.676, 105.3654
1513.711, 118.2526
1514.746, 110.9060
1515.781, 130.6527
1516.816, 94.77197
1517.850, 119.9049
1518.884, 122.0461
1519.918, 155.1997
1520.952, 146.7803
1521.986, 140.4839
1523.019, 120.4136
1524.053, 151.8589
1525.086, 180.5463
1526.119, 197.9510
1527.152, 168.1558
1528.185, 167.8032
1529.217, 155.5618
1530.250, 187.0061
1531.282, 170.9458
1532.314, 153.4691
1533.346, 164.5677
1534.377, 134.9993
1535.409, 153.0015
1536.440, 166.9272
1537.472, 156.1495
1538.503, 156.0131
1539.534, 153.6676
1540.564, 119.2686
1541.595, 107.5293
1542.625, 65.56543
1543.656, 75.53174
1544.686, 76.16431
1545.716, 60.69507
1546.745, 10.09717
1547.775, 104.7610
1548.804, 31.57227
1549.834, 128.5327
1550.863, 94.72925
1551.892, 152.8057
1552.920, 128.6252
1553.949, 210.0190
1554.977, 261.5256
1556.006, 221.3745
1557.034, 92.58838
1558.062, 39.95923
1559.089, 6.852783
1560.117, 15.41309
1561.144, 18.77197
1562.172, 5.833496
1563.199, 21.12476
1564.226, 99.86621
1565.252, 95.86670
1566.279, 55.26562
1567.305, 78.48901
1568.332, 96.47729
1569.358, 11.65869
1570.384, 10.56201
1571.409, 0.0000000E+00
##END=



