##NAMES=Baryte
##RRUFFID=R050335
##IDEAL CHEMISTRY=BaSO_4_
##LOCALITY=Bullion Mountains, San Bernardino County, California, USA
##OWNER=RRUFF
##SOURCE=California Institute of Technology
##DESCRIPTION=Colorless cleavage fragment
##STATUS=The identification of this mineral has been confirmed by X-ray diffraction and chemical analysis
##URL=rruff.info/R050335
##MEASURED CHEMISTRY=(Ba_0.95_Sr_0.05_)_Î£=1_S_1.00_O_4_
##PIN_ID=M00253
##ORIENTATION=Laser parallel to -b* (0 -1 0). Fiducial mark perpendicular to laser is parallel to -c [0 0 -1]
93.48000, 0.0000000E+00
94.71400, 7.445313
95.94800, 1.936523
97.18200, 124.3608
98.41600, 206.8525
99.64900, 287.7295
100.8830, 258.3354
102.1160, 233.5981
103.3490, 273.7852
104.5820, 120.3687
105.8150, 120.9521
107.0470, 82.22803
108.2800, 202.9595
109.5120, 113.9575
110.7440, 196.0688
111.9760, 36.16846
113.2080, 85.14941
114.4400, 73.91943
115.6710, 78.39697
116.9030, 168.5117
118.1340, 162.2036
119.3650, 236.4224
120.5960, 131.1226
121.8270, 136.2734
123.0580, 184.8511
124.2880, 361.8223
125.5190, 359.1587
126.7490, 401.8330
127.9790, 506.8281
129.2090, 537.1270
130.4390, 644.7158
131.6680, 704.5674
132.8980, 815.6548
134.1270, 960.9575
135.3560, 1165.459
136.5850, 1331.146
137.8140, 1535.008
139.0430, 1626.034
140.2710, 1751.218
141.5000, 1844.552
142.7280, 1753.031
143.9560, 1704.645
145.1840, 1600.395
146.4120, 1435.272
147.6390, 1296.270
148.8670, 1037.491
150.0940, 975.9092
151.3210, 849.4707
152.5490, 940.1182
153.7750, 706.8730
155.0020, 694.7261
156.2290, 623.6650
157.4550, 607.6787
158.6810, 551.7715
159.9080, 617.9556
161.1340, 380.2847
162.3590, 359.6865
163.5850, 438.2412
164.8110, 510.9668
166.0360, 337.7461
167.2610, 290.5537
168.4860, 265.3228
169.7110, 313.0674
170.9360, 294.8013
172.1610, 348.5361
173.3850, 373.2783
174.6100, 364.0342
175.8340, 411.4146
177.0580, 299.6045
178.2820, 434.4248
179.5050, 392.3477
180.7290, 327.2236
181.9520, 462.1323
183.1760, 433.1323
184.3990, 371.1631
185.6220, 491.2310
186.8450, 519.3667
188.0670, 625.5439
189.2900, 615.7539
190.5120, 603.9971
191.7340, 572.2734
192.9560, 622.5835
194.1780, 536.9268
195.4000, 519.3032
196.6220, 363.9990
197.8430, 396.4380
199.0640, 271.9097
200.2860, 245.4146
201.5070, 192.9512
202.7270, 172.2456
203.9480, 261.8560
205.1690, 166.6299
206.3890, 200.1255
207.6090, 183.9072
208.8290, 148.5117
210.0490, 95.14697
211.2690, 109.8130
212.4890, 75.14893
213.7080, 154.4302
214.9280, 158.6431
216.1470, 78.41064
217.3660, 154.5054
218.5850, 176.3271
219.8030, 162.1758
221.0220, 111.0518
222.2400, 200.0576
223.4590, 238.1821
224.6770, 171.1650
225.8950, 55.81006
227.1120, 23.00781
228.3300, 158.0137
229.5480, 131.5791
230.7650, 125.6270
231.9820, 112.4761
233.1990, 99.93359
234.4160, 158.0425
235.6330, 158.8066
236.8490, 125.8613
238.0660, 75.93701
239.2820, 97.90869
240.4980, 67.17334
241.7140, 132.7749
242.9300, 154.6733
244.1460, 207.8291
245.3610, 232.1855
246.5770, 55.71191
247.7920, 185.3877
249.0070, 47.19434
250.2220, 101.1177
251.4370, 108.1475
252.6510, 90.27295
253.8660, 170.4873
255.0800, 197.7832
256.2940, 91.15527
257.5080, 147.5977
258.7220, 60.10596
259.9360, 159.6768
261.1490, 50.30615
262.3630, 44.99023
263.5760, 4.273438
264.7890, 126.5122
266.0020, 133.3452
267.2150, 92.22314
268.4270, 142.2900
269.6400, 151.2510
270.8520, 186.4775
272.0640, 67.51611
273.2760, 131.6021
274.4880, 159.7222
275.7000, 56.19678
276.9120, 169.3887
278.1230, 187.1523
279.3340, 177.5088
280.5450, 88.34375
281.7560, 165.6504
282.9670, 85.00098
284.1780, 66.40918
285.3880, 132.8428
286.5980, 54.30078
287.8090, 52.78174
289.0190, 76.28516
290.2290, 89.81152
291.4380, 99.35938
292.6480, 84.92822
293.8570, 88.13818
295.0670, 8.125977
296.2760, 50.75928
297.4850, 55.41016
298.6930, 8.920898
299.9020, 87.77539
301.1110, 48.50000
302.3190, 33.24072
303.5270, 44.99756
304.7350, 66.76904
305.9430, 228.5562
307.1510, 92.35791
308.3580, 12.17334
309.5660, 70.99756
310.7730, 66.83203
311.9800, 44.32568
313.1870, 7.521484
314.3940, 83.38135
315.6010, 26.74414
316.8070, 151.1387
318.0130, 73.96387
319.2200, 4.067383
320.4260, 86.84131
321.6310, 81.76172
322.8370, 135.6948
324.0430, 109.6406
325.2480, 103.5986
326.4540, 72.56836
327.6590, 77.54980
328.8640, 25.54395
330.0680, 12.45117
331.2730, 10.59570
332.4780, 16.58594
333.6820, 3.619141
334.8860, 7.336914
336.0900, 51.71582
337.2940, 59.77930
338.4980, 9.852539
339.7010, 3.063477
340.9050, 37.02832
342.1080, 57.12988
343.3110, 100.2402
344.5140, 153.3604
345.7170, 65.49023
346.9200, 10.62891
348.1220, 7.760742
349.3240, 4.093750
350.5270, 1.536133
351.7290, 94.71680
352.9310, 7.851563
354.1320, 61.47070
355.3340, 18.62207
356.5350, 28.21777
357.7370, 31.58594
358.9380, 56.25000
360.1390, 108.9082
361.3400, 31.07324
362.5400, 33.24609
363.7410, 3.573242
364.9410, 94.61133
366.1410, 143.8057
367.3410, 28.99414
368.5410, 51.79590
369.7410, 66.39746
370.9400, 0.5908200
372.1400, 107.2246
373.3390, 102.9434
374.5380, 5.886719
375.7370, 51.28809
376.9360, 30.44922
378.1350, 115.6152
379.3330, 127.7617
380.5310, 23.91211
381.7300, 111.1025
382.9280, 103.2676
384.1260, 9.562500
385.3230, 62.62012
386.5210, 67.82129
387.7180, 88.03906
388.9160, 126.2744
390.1130, 104.8281
391.3100, 61.25684
392.5060, 130.5342
393.7030, 95.82422
394.9000, 114.1270
396.0960, 190.4404
397.2920, 180.7666
398.4880, 108.1025
399.6840, 131.4492
400.8800, 146.8066
402.0750, 156.1738
403.2710, 145.8145
404.4660, 135.9365
405.6610, 102.3320
406.8560, 84.76367
408.0510, 49.13281
409.2450, 48.58008
410.4400, 81.00977
411.6340, 17.44727
412.8280, 155.8906
414.0220, 65.57324
415.2160, 80.91699
416.4100, 67.12891
417.6030, 122.5781
418.7970, 14.52148
419.9900, 161.0410
421.1830, 31.49121
422.3760, 23.95898
423.5690, 8.580078
424.7610, 121.0361
425.9540, 226.3750
427.1460, 62.59570
428.3380, 69.06934
429.5300, 102.5479
430.7220, 109.0312
431.9140, 64.51758
433.1050, 153.0605
434.2970, 172.5566
435.4880, 278.0586
436.6790, 315.5645
437.8700, 276.0752
439.0610, 569.9443
440.2510, 635.4639
441.4420, 782.9844
442.6320, 1059.077
443.8220, 1280.164
445.0120, 1551.696
446.2020, 1872.232
447.3910, 2217.772
448.5810, 2640.316
449.7700, 3071.862
450.9600, 3576.410
452.1490, 3804.966
453.3370, 3824.778
454.5260, 3637.340
455.7150, 3449.305
456.9030, 2737.871
458.0910, 2391.006
459.2800, 2070.654
460.4670, 1889.415
461.6550, 1615.967
462.8430, 1301.387
464.0300, 1100.990
465.2180, 968.5977
466.4050, 746.2061
467.5920, 540.8193
468.7790, 339.4336
469.9650, 377.0498
471.1520, 256.6689
472.3380, 218.2910
473.5250, 195.4023
474.7110, 170.5762
475.8970, 158.2139
477.0820, 78.83789
478.2680, 251.1094
479.4540, 110.7549
480.6390, 184.4033
481.8240, 175.0518
483.0090, 110.4502
484.1940, 193.1055
485.3780, 73.76855
486.5630, 77.43359
487.7470, 182.1025
488.9320, 134.7715
490.1160, 58.44434
491.3000, 35.10938
492.4830, 59.69824
493.6670, 28.20020
494.8500, 139.8711
496.0340, 24.52051
497.2170, 126.1895
498.4000, 113.8604
499.5820, 3.973633
500.7650, 144.6836
501.9480, 176.4219
503.1300, 120.0830
504.3120, 89.74219
505.4940, 60.40723
506.6760, 157.5723
507.8580, 197.2383
509.0390, 158.9062
510.2210, 122.8838
511.4020, 84.70508
512.5830, 121.3750
513.7640, 210.6562
514.9450, 200.4941
516.1250, 266.6299
517.3060, 245.1406
518.4860, 296.8193
519.6660, 274.4990
520.8460, 153.1797
522.0260, 44.86133
523.2060, 37.54492
524.3850, 70.23047
525.5650, 54.91895
526.7440, 65.63965
527.9230, 71.47852
529.1020, 138.1699
530.2810, 66.87402
531.4590, 21.58105
532.6380, 28.28613
533.8160, 169.9893
534.9940, 67.69238
536.1720, 101.3965
537.3500, 198.1074
538.5270, 102.8193
539.7050, 157.5312
540.8820, 142.2451
542.0590, 119.9570
543.2360, 127.3398
544.4130, 111.3838
545.5900, 124.0986
546.7660, 103.0010
547.9430, 40.52344
549.1190, 90.25293
550.2950, 40.99512
551.4710, 85.75781
552.6470, 54.51562
553.8220, 68.12305
554.9980, 36.90723
556.1730, 34.78418
557.3480, 30.11426
558.5230, 54.88574
559.6980, 7.357422
560.8730, 37.06934
562.0470, 75.80957
563.2220, 46.00781
564.3960, 27.63867
565.5700, 226.8193
566.7440, 49.44629
567.9170, 112.7461
569.0910, 193.8867
570.2640, 46.51758
571.4380, 137.1475
572.6110, 126.7773
573.7840, 36.40332
574.9570, 52.04199
576.1290, 140.6650
577.3020, 62.28809
578.4740, 45.90918
579.6460, 6.471680
580.8180, 64.13379
581.9900, 105.7383
583.1620, 30.65820
584.3330, 27.08008
585.5040, 94.47363
586.6760, 69.03125
587.8470, 69.90918
589.0180, 195.4639
590.1880, 125.0166
591.3590, 141.5654
592.5290, 81.79688
593.7000, 77.34277
594.8700, 122.9736
596.0400, 128.5303
597.2090, 118.0908
598.3790, 9.648438
599.5490, 159.2002
600.7180, 25.75391
601.8870, 224.3164
603.0560, 216.3252
604.2250, 402.6055
605.3940, 327.1748
606.5620, 291.7422
607.7300, 564.5840
608.8990, 388.1455
610.0670, 621.7051
611.2350, 694.2617
612.4020, 885.8145
613.5700, 1094.880
614.7370, 1317.429
615.9050, 1510.978
617.0720, 1536.085
618.2390, 1556.655
619.4060, 1342.196
620.5720, 1355.732
621.7390, 1347.266
622.9050, 1222.277
624.0710, 1286.807
625.2370, 1362.080
626.4030, 1392.618
627.5690, 1851.602
628.7340, 2024.133
629.9000, 2088.660
631.0650, 2088.205
632.2300, 1864.524
633.3950, 1795.039
634.5600, 1540.188
635.7240, 1329.486
636.8890, 975.7461
638.0530, 869.2676
639.2170, 773.7861
640.3810, 622.6621
641.5450, 713.1787
642.7080, 646.7031
643.8720, 745.2246
645.0350, 767.2178
646.1980, 634.7305
647.3610, 706.2422
648.5240, 535.7480
649.6870, 569.2510
650.8490, 646.7568
652.0120, 385.2705
653.1740, 379.7812
654.3360, 374.6719
655.4980, 332.5117
656.6600, 392.0498
657.8210, 223.5859
658.9830, 336.1172
660.1440, 317.6523
661.3050, 147.2393
662.4660, 171.7578
663.6270, 199.6055
664.7870, 126.1123
665.9480, 187.6289
667.1080, 36.13184
668.2680, 143.7363
669.4280, 70.45312
670.5880, 241.1475
671.7480, 167.3242
672.9070, 175.6338
674.0670, 65.13281
675.2260, 209.6055
676.3850, 273.4844
677.5440, 207.9395
678.7030, 234.7607
679.8610, 185.2051
681.0200, 265.6436
682.1780, 168.2178
683.3360, 235.6455
684.4940, 186.2656
685.6520, 250.6816
686.8090, 197.0938
687.9670, 167.3594
689.1240, 107.1143
690.2810, 63.80762
691.4380, 200.1943
692.5950, 176.6084
693.7520, 231.8662
694.9080, 139.1504
696.0650, 25.46191
697.2210, 12.56641
698.3770, 107.7744
699.5330, 85.62109
700.6880, 135.8906
701.8440, 79.28906
702.9990, 176.6143
704.1550, 200.7695
705.3100, 127.0850
706.4650, 212.5176
707.6190, 114.0684
708.7740, 224.3633
709.9290, 117.6533
711.0830, 168.9355
712.2370, 80.21191
713.3910, 56.43457
714.5450, 102.6982
715.6980, 189.9561
716.8520, 153.3164
718.0050, 235.5615
719.1580, 102.4434
720.3110, 125.8311
721.4640, 235.0557
722.6170, 146.5293
723.7700, 183.1836
724.9220, 115.6494
726.0740, 25.84863
727.2260, 72.04004
728.3780, 141.2236
729.5300, 209.4014
730.6810, 8.776367
731.8330, 211.9346
732.9840, 44.08789
734.1350, 98.72461
735.2860, 103.8633
736.4370, 112.9961
737.5880, 100.7695
738.7380, 194.8887
739.8880, 172.7871
741.0390, 21.89160
742.1890, 59.01367
743.3380, 82.29395
744.4880, 137.6514
745.6380, 31.68457
746.7870, 131.7080
747.9360, 100.7246
749.0850, 196.7344
750.2340, 181.7363
751.3830, 24.26855
752.5310, 122.6982
753.6800, 315.7080
754.8280, 15.66113
755.9760, 54.59961
757.1240, 204.5322
758.2720, 91.53223
759.4190, 60.45020
760.5670, 19.37012
761.7140, 74.72754
762.8610, 12.37988
764.0080, 101.2021
765.1550, 24.12695
766.3020, 86.97754
767.4480, 108.8203
768.5950, 59.65625
769.7410, 89.48340
770.8870, 116.3047
772.0330, 168.1201
773.1780, 95.92871
774.3240, 245.8643
775.4690, 95.65918
776.6140, 220.4473
777.7590, 109.2988
778.9040, 172.0791
780.0490, 99.87012
781.1940, 126.6660
782.3380, 25.45508
783.4820, 128.2314
784.6260, 98.20312
785.7700, 188.9658
786.9140, 158.7217
788.0580, 93.46777
789.2010, 188.2080
790.3450, 105.9531
791.4880, 33.95801
792.6310, 39.66992
793.7730, 101.4717
794.9160, 225.1641
796.0590, 144.8496
797.2010, 76.52539
798.3430, 63.19434
799.4850, 179.8535
800.6270, 33.50684
801.7690, 154.1514
802.9100, 75.80176
804.0520, 167.4648
805.1930, 57.97363
806.3340, 32.36523
807.4750, 46.25977
808.6160, 135.8740
809.7560, 172.4834
810.8970, 73.08301
812.0370, 78.67578
813.1770, 3.741211
814.3170, 152.8223
815.4570, 32.37695
816.5960, 126.9199
817.7360, 182.4551
818.8750, 53.98145
820.0140, 187.5000
821.1530, 47.00879
822.2920, 92.50879
823.4310, 160.0010
824.5690, 43.51660
825.7070, 35.07422
826.8460, 34.66895
827.9840, 118.6924
829.1220, 73.05371
830.2590, 91.59375
831.3970, 232.6914
832.5340, 88.96973
833.6710, 28.60059
834.8080, 196.6299
835.9450, 86.89355
837.0820, 105.1562
838.2190, 59.41211
839.3550, 88.65918
840.4910, 143.8984
841.6270, 222.1318
842.7630, 155.3574
843.8990, 201.1016
845.0350, 317.8506
846.1700, 185.1035
847.3060, 121.3477
848.4410, 92.58496
849.5760, 128.8154
850.7100, 150.0254
851.8450, 169.2402
852.9800, 50.44727
854.1140, 275.6455
855.2480, 231.8379
856.3820, 44.02930
857.5160, 143.2109
858.6500, 70.38574
859.7830, 81.56543
860.9170, 5.250977
862.0500, 127.9131
863.1830, 80.74805
864.3160, 85.89941
865.4480, 165.0430
866.5810, 36.17969
867.7130, 121.6250
868.8460, 113.7451
869.9780, 11.78418
871.1100, 116.8877
872.2410, 80.98242
873.3730, 33.07129
874.5050, 170.1543
875.6360, 33.76953
876.7670, 141.2744
877.8980, 98.87695
879.0290, 22.20020
880.1590, 17.22363
881.2900, 125.2373
882.4200, 180.9688
883.5500, 119.9688
884.6800, 195.7529
885.8100, 111.9531
886.9400, 183.9346
888.0690, 161.3965
889.1990, 51.36621
890.3280, 90.33203
891.4570, 108.7266
892.5860, 108.6504
893.7140, 44.59766
894.8430, 192.5381
895.9710, 59.47363
897.1000, 1.921875
898.2280, 66.84082
899.3560, 50.99316
900.4830, 43.88281
901.6110, 107.3057
902.7380, 224.4697
903.8660, 293.4805
904.9930, 353.8613
906.1200, 484.7109
907.2460, 56.55566
908.3730, 180.3955
909.5000, 74.77051
910.6260, 90.01465
911.7520, 151.7949
912.8780, 38.89648
914.0040, 257.6660
915.1290, 280.1367
916.2550, 115.3691
917.3800, 124.1230
918.5050, 213.3955
919.6300, 19.43457
920.7550, 170.1729
921.8800, 264.9062
923.0040, 142.6348
924.1290, 103.3584
925.2530, 55.07617
926.3770, 43.20996
927.5010, 98.10059
928.6250, 32.47852
929.7480, 203.1484
930.8720, 94.81348
931.9950, 176.4746
933.1180, 111.1240
934.2410, 77.70996
935.3640, 110.0361
936.4860, 82.67383
937.6090, 133.3350
938.7310, 147.8896
939.8530, 96.08887
940.9750, 107.5596
942.0970, 128.9561
943.2180, 107.3652
944.3400, 159.9775
945.4610, 159.6748
946.5820, 69.17090
947.7030, 171.7754
948.8240, 200.9648
949.9450, 172.5684
951.0650, 101.7939
952.1860, 75.38965
953.3060, 64.97949
954.4260, 186.4258
955.5460, 128.0088
956.6650, 208.4023
957.7850, 363.9912
958.9040, 214.5762
960.0230, 268.2715
961.1420, 356.4980
962.2610, 309.7500
963.3800, 386.3926
964.4990, 278.9307
965.6170, 425.6172
966.7350, 325.1855
967.8530, 369.7510
968.9710, 459.9346
970.0890, 631.5088
971.2070, 670.0518
972.3240, 755.4619
973.4410, 820.1426
974.5580, 930.7100
975.6750, 999.2754
976.7920, 1239.839
977.9090, 1856.401
979.0250, 2481.961
980.1410, 3862.521
981.2580, 5856.076
982.3740, 9677.630
983.4890, 15105.18
984.6050, 21223.73
985.7200, 28699.29
986.8360, 38283.85
987.9510, 46027.29
989.0660, 48753.84
990.1810, 43856.40
991.2950, 32624.81
992.4100, 19910.37
993.5240, 10912.92
994.6390, 5800.492
995.7530, 3415.803
996.8660, 2565.372
997.9800, 1970.941
999.0940, 1566.510
1000.207, 1241.079
1001.320, 846.4434
1002.433, 647.0117
1003.546, 729.5801
1004.659, 452.6572
1005.772, 483.2256
1006.884, 526.7930
1007.996, 273.1465
1009.108, 387.7148
1010.220, 330.3086
1011.332, 280.8760
1012.444, 322.4453
1013.555, 207.7773
1014.666, 365.0498
1015.777, 333.6406
1016.888, 206.2334
1017.999, 78.82617
1019.110, 81.91016
1020.220, 66.01465
1021.331, 118.6094
1022.441, 132.1562
1023.551, 96.77246
1024.661, 174.3809
1025.770, 179.9912
1026.880, 133.6035
1027.989, 222.1426
1029.098, 147.7568
1030.207, 163.3623
1031.316, 89.52246
1032.425, 18.14258
1033.533, 7.057617
1034.642, 116.6240
1035.750, 81.25684
1036.858, 19.89062
1037.966, 106.5254
1039.073, 81.16309
1040.181, 100.8008
1041.288, 78.44043
1042.396, 83.08008
1043.503, 130.5879
1044.610, 69.23633
1045.716, 9.116211
1046.823, 160.4619
1047.929, 69.88770
1049.036, 66.26758
1050.142, 76.32422
1051.248, 196.9170
1052.353, 8.485352
1053.459, 184.9111
1054.564, 110.5107
1055.670, 47.11133
1056.775, 50.71484
1057.880, 178.3203
1058.985, 161.9170
1060.089, 93.24609
1061.194, 176.8613
1062.298, 30.37988
1063.402, 179.0020
1064.506, 160.6270
1065.610, 36.25586
1066.713, 190.8867
1067.817, 19.48047
1068.920, 11.84961
1070.023, 62.21875
1071.126, 92.77246
1072.229, 17.04492
1073.332, 61.48047
1074.435, 67.05957
1075.537, 91.61914
1076.639, 154.1816
1077.741, 222.7471
1078.843, 140.0195
1079.945, 264.5908
1081.046, 146.1660
1082.148, 292.7500
1083.249, 337.3379
1084.350, 455.9316
1085.451, 388.5273
1086.551, 290.1260
1087.652, 243.7295
1088.752, 190.6846
1089.853, 108.8350
1090.953, 92.44824
1092.053, 143.7656
1093.152, 70.40332
1094.252, 200.0576
1095.351, 1.270508
1096.451, 214.4043
1097.550, 131.0918
1098.649, 176.8711
1099.748, 317.6387
1100.846, 322.4082
1101.945, 329.1836
1103.043, 371.9707
1104.141, 402.7598
1105.239, 459.5527
1106.337, 270.3516
1107.434, 231.1523
1108.532, 279.9551
1109.629, 229.7637
1110.726, 212.5762
1111.823, 213.3906
1112.920, 197.2109
1114.017, 235.0312
1115.113, 177.8574
1116.210, 226.6855
1117.306, 52.29102
1118.402, 289.1270
1119.498, 230.9668
1120.593, 433.9102
1121.689, 166.7559
1122.784, 342.4922
1123.879, 492.3086
1124.974, 238.3672
1126.069, 485.2285
1127.164, 641.0957
1128.259, 459.9707
1129.353, 560.8594
1130.447, 983.7480
1131.541, 895.6406
1132.635, 1273.539
1133.729, 1419.443
1134.822, 1780.367
1135.916, 2149.307
1137.009, 2561.270
1138.102, 3020.258
1139.195, 3584.244
1140.288, 3798.236
1141.380, 4369.232
1142.473, 4835.248
1143.565, 4734.367
1144.657, 4738.395
1145.749, 4751.430
1146.841, 4203.471
1147.932, 3557.547
1149.024, 3073.594
1150.115, 2468.643
1151.206, 2114.693
1152.297, 1663.750
1153.388, 1502.889
1154.479, 1242.949
1155.569, 1001.014
1156.659, 1079.080
1157.750, 897.1484
1158.839, 828.2207
1159.929, 594.2930
1161.019, 698.4180
1162.108, 770.5078
1163.198, 779.6035
1164.287, 973.6992
1165.376, 646.8145
1166.465, 978.9336
1167.553, 868.0547
1168.642, 880.1777
1169.730, 991.3047
1170.818, 805.4355
1171.906, 707.5684
1172.994, 632.7031
1174.082, 507.8379
1175.170, 361.4492
1176.257, 398.6094
1177.344, 341.4473
1178.431, 382.8281
1179.518, 173.2949
1180.605, 387.9961
1181.691, 171.1699
1182.778, 160.3457
1183.864, 289.2305
1184.950, 204.4102
1186.036, 239.5938
1187.122, 336.7773
1188.207, 246.9648
1189.292, 182.4707
1190.378, 207.6621
1191.463, 114.8672
1192.548, 197.0781
1193.632, 154.2891
1194.717, 127.5020
1195.801, 275.7148
1196.886, 183.9336
1197.970, 243.1504
1199.054, 122.8770
1200.137, 108.7344
1201.221, 184.9336
1202.305, 168.2266
1203.388, 187.8125
1204.471, 141.1855
1205.554, 213.4160
1206.637, 54.64844
1207.719, 72.88086
1208.802, 58.88281
1209.884, 133.3301
1210.966, 281.5449
1212.048, 98.75977
1213.130, 70.32812
1214.212, 118.5449
1215.293, 163.7656
1216.374, 286.9863
1217.456, 174.2441
1218.536, 60.49609
1219.617, 146.7422
1220.698, 121.0449
1221.778, 19.71680
1222.859, 217.5156
1223.939, 126.7500
1225.019, 275.0801
1226.099, 210.2539
1227.178, 184.8848
1228.258, 10.98633
1229.337, 91.34961
1230.417, 133.6074
1231.496, 81.86523
1232.574, 74.84375
1233.653, 105.0996
1234.732, 135.4297
1235.810, 68.68750
1236.888, 114.9492
1237.966, 109.4883
1239.044, 175.7461
1240.122, 100.0059
1241.199, 59.33398
1242.277, 66.58789
1243.354, 77.84180
1244.431, 248.0957
1245.508, 68.34766
1246.585, 33.40430
1247.661, 203.8320
1248.738, 122.0645
1249.814, 11.29492
1250.890, 201.7051
1251.966, 16.84961
1253.042, 35.33008
1254.117, 39.01562
1255.193, 111.1582
1256.268, 247.3301
1257.343, 295.5039
1258.418, 308.9941
1259.493, 59.31250
1260.567, 203.4785
1261.642, 170.6426
1262.716, 73.93359
1263.790, 154.0859
1264.864, 142.9980
1265.938, 171.2520
1267.011, 178.7402
1268.085, 64.98242
1269.158, 160.3574
1270.231, 286.5059
1271.304, 177.3086
1272.377, 39.44922
1273.450, 175.7129
1274.522, 93.84375
1275.594, 225.6289
1276.666, 59.75586
1277.738, 147.0156
1278.810, 289.1289
1279.882, 247.2402
1280.953, 171.5137
1282.025, 51.76367
1283.096, 384.0938
1284.167, 114.1836
1285.238, 240.2656
1286.308, 176.3418
1287.379, 177.4629
1288.449, 200.5273
1289.519, 64.66602
1290.589, 309.1367
1291.659, 143.3730
1292.729, 353.4160
1293.798, 134.4492
1294.868, 278.4824
1295.937, 240.5664
1297.006, 99.58398
1298.075, 316.3535
1299.143, 92.54492
1300.212, 142.5430
1301.280, 235.5352
1302.348, 283.5195
1303.416, 4.498047
1304.484, 438.7148
1305.552, 328.6738
1306.620, 36.70312
1307.687, 341.0645
1308.754, 205.0195
1309.821, 309.9785
1310.888, 154.9297
1311.955, 130.8770
1313.021, 223.8145
1314.088, 236.7480
1315.154, 269.6719
1316.220, 118.5879
1317.286, 20.50195
1318.352, 149.7637
1319.417, 288.6562
1320.483, 184.6426
1321.548, 255.5117
1322.613, 163.3828
1323.678, 201.2480
1324.743, 110.1094
1325.807, 172.9688
1326.872, 54.82617
1327.936, 340.9570
1329.000, 243.8086
1330.064, 119.6758
1331.128, 203.6738
1332.191, 96.55469
1333.255, 168.4453
1334.318, 232.3320
1335.381, 275.2168
1336.444, 179.0957
1337.507, 171.2656
1338.569, 277.1250
1339.632, 113.9316
1340.694, 27.73242
1341.756, 171.5195
1342.818, 191.3008
1343.880, 141.0879
1344.941, 244.2930
1346.003, 197.0586
1347.064, 180.2441
1348.125, 100.1074
1349.186, 176.8555
1350.247, 124.8984
1351.308, 282.0430
1352.368, 97.51367
1353.428, 345.6855
1354.489, 17.04492
1355.549, 72.09180
1356.608, 44.21875
1357.668, 147.8809
1358.727, 167.6719
1359.787, 5.722656
1360.846, 185.1055
1361.905, 108.7617
1362.964, 316.5195
1364.022, 272.2988
1365.081, 59.89258
1366.139, 274.6426
1367.197, 287.0781
1368.255, 111.5059
1369.313, 228.9219
1370.371, 170.3164
1371.428, 185.7012
1372.486, 173.0762
1373.543, 230.4395
1374.600, 210.8945
1375.657, 266.8965
1376.713, 208.2305
1377.770, 87.45508
1378.826, 79.86719
1379.882, 59.23438
1380.938, 101.5723
1381.994, 227.6602
1383.050, 269.0625
1384.106, 161.6953
1385.161, 18.04492
1386.216, 329.1953
1387.271, 200.4277
1388.326, 206.8047
1389.381, 4.015625
1390.435, 25.78906
1391.490, 37.25781
1392.544, 42.64844
1393.598, 46.33203
1394.652, 114.7617
1395.705, 82.04883
1396.759, 226.0352
1397.812, 22.37305
1398.866, 158.3281
1399.919, 10.79688
1400.972, 157.1074
1402.024, 23.04297
1403.077, 310.8770
1404.129, 103.6621
1405.181, 211.4629
1406.233, 261.2461
1407.285, 97.00977
1408.337, 102.7598
1409.389, 81.41797
1410.440, 235.1543
1411.491, 175.8613
1412.542, 308.5527
1413.593, 128.2285
1414.644, 247.8906
1415.695, 120.5391
1416.745, 14.88086
1417.795, 94.71875
1418.845, 254.3945
1419.895, 333.9219
1420.945, 194.4277
1421.995, 125.9121
1423.044, 196.3711
1424.093, 19.83008
1425.142, 95.24609
1426.191, 171.6504
1427.240, 247.6211
1428.289, 172.9922
1429.337, 246.3496
1430.385, 81.35352
1431.433, 150.6777
1432.481, 123.9883
1433.529, 52.06250
1434.577, 207.3359
1435.624, 375.5996
1436.672, 266.8516
1437.719, 238.0625
1438.766, 283.2617
1439.812, 185.6465
1440.859, 229.9102
1441.905, 313.0684
1442.952, 395.3965
1443.998, 61.24805
1445.044, 227.3320
1446.090, 119.0098
1447.135, 263.1953
1448.181, 157.6465
1449.226, 196.0918
1450.271, 342.3340
1451.316, 270.7578
1452.361, 402.1719
1453.405, 81.54492
1454.450, 219.9375
1455.494, 374.3340
1456.538, 121.7324
1457.582, 150.7422
1458.626, 218.1172
1459.670, 222.4062
1460.713, 217.7070
1461.757, 155.9336
1462.800, 164.1191
1463.843, 186.6250
1464.886, 142.2188
1465.928, 220.2852
1466.971, 145.2949
1468.013, 350.2266
1469.055, 139.8828
1470.097, 111.1367
1471.139, 238.7441
1472.181, 68.70312
1473.222, 118.6484
1474.263, 145.6016
1475.305, 194.3047
1476.346, 58.56250
1477.386, 26.36328
1478.427, 54.97070
1479.468, 17.06836
1480.508, 81.83203
1481.548, 77.02344
1482.588, 31.85547
1483.628, 65.84961
1484.668, 108.5020
1485.707, 53.09180
1486.747, 84.49219
1487.786, 57.98438
1488.825, 52.54492
1489.864, 93.72070
1490.902, 54.20117
1491.941, 179.5977
1492.979, 208.9102
1494.017, 276.1602
1495.055, 213.2930
1496.093, 168.5898
1497.131, 313.7773
1498.168, 349.7715
1499.206, 43.69922
1500.243, 89.92969
1501.280, 127.7148
1502.317, 142.8047
1503.354, 114.2578
1504.390, 141.3887
1505.426, 218.6523
1506.463, 132.8398
1507.499, 96.01562
1508.535, 47.47070
1509.570, 174.4297
1510.606, 162.5664
1511.641, 223.6523
1512.676, 89.10547
1513.711, 220.0801
1514.746, 200.7480
1515.781, 12.39062
1516.816, 190.4141
1517.850, 79.18555
1518.884, 168.1602
1519.918, 77.13086
1520.952, 210.2480
1521.986, 30.90234
1523.019, 129.9863
1524.053, 98.20508
1525.086, 111.2129
1526.119, 81.55859
1527.152, 225.4121
1528.185, 129.6973
1529.217, 184.4766
1530.250, 207.8711
1531.282, 107.6113
1532.314, 123.6348
1533.346, 211.6445
1534.377, 93.63672
1535.409, 139.2598
1536.440, 134.5742
1537.472, 149.1543
1538.503, 148.8164
1539.534, 270.8789
1540.564, 217.8496
1541.595, 119.1230
1542.625, 70.60156
1543.656, 170.3945
1544.686, 100.0020
1545.716, 192.2812
1546.745, 95.34961
1547.775, 79.91016
1548.804, 135.4434
1549.834, 156.5762
1550.863, 3.271484
1551.892, 223.8789
1552.920, 258.8125
1553.949, 57.80469
1554.977, 352.6992
1556.006, 173.5605
1557.034, 121.5684
1558.062, 246.0469
1559.089, 166.8652
1560.117, 150.7344
1561.144, 130.6426
1562.172, 173.2090
1563.199, 43.07422
1564.226, 69.62695
1565.252, 226.1523
1566.279, 2.902344
1567.305, 89.13281
1568.332, 292.7969
1569.358, 44.48242
1570.384, 0.0000000E+00
##END=



