##NAMES=Baryte
##RRUFFID=R050335
##IDEAL CHEMISTRY=BaSO_4_
##LOCALITY=Bullion Mountains, San Bernardino County, California, USA
##OWNER=RRUFF
##SOURCE=California Institute of Technology
##DESCRIPTION=Colorless cleavage fragment
##STATUS=The identification of this mineral has been confirmed by X-ray diffraction and chemical analysis
##URL=rruff.info/R050335
##MEASURED CHEMISTRY=(Ba_0.95_Sr_0.05_)_Î£=1_S_1.00_O_4_
##PIN_ID=L01894
##ORIENTATION=Laser parallel to -a* (-1 0 0). Fiducial mark perpendicular to laser is parallel to b [0 1 0]
93.48000, 0.0000000E+00
94.71400, 98.92334
95.94800, 4.424316
97.18200, 151.7651
98.41600, 97.16504
99.64900, 96.17334
100.8830, 129.7188
102.1160, 190.0610
103.3490, 150.6777
104.5820, 281.1743
105.8150, 535.2471
107.0470, 1021.659
108.2800, 1395.225
109.5120, 1360.800
110.7440, 941.2759
111.9760, 1345.546
113.2080, 1514.520
114.4400, 1392.116
115.6710, 561.2661
116.9030, 389.9199
118.1340, 300.0249
119.3650, 242.5376
120.5960, 189.4326
121.8270, 208.3403
123.0580, 218.2998
124.2880, 316.1826
125.5190, 334.4287
126.7490, 441.9878
127.9790, 556.7798
129.2090, 427.7920
130.4390, 621.0078
131.6680, 558.4019
132.8980, 666.9556
134.1270, 706.6523
135.3560, 851.4834
136.5850, 949.4360
137.8140, 1267.554
139.0430, 1511.808
140.2710, 2089.168
141.5000, 2548.614
142.7280, 2852.143
143.9560, 2971.770
145.1840, 2572.489
146.4120, 2127.444
147.6390, 1638.494
148.8670, 1434.678
150.0940, 1174.047
151.3210, 1073.475
152.5490, 915.9805
153.7750, 746.5679
155.0020, 664.2280
156.2290, 492.9380
157.4550, 421.4082
158.6810, 357.2090
159.9080, 353.0190
161.1340, 296.8765
162.3590, 274.8257
163.5850, 307.8770
164.8110, 363.9473
166.0360, 303.0273
167.2610, 243.0981
168.4860, 284.1172
169.7110, 262.0991
170.9360, 254.0596
172.1610, 291.0068
173.3850, 98.94727
174.6100, 107.8867
175.8340, 197.9004
177.0580, 139.8457
178.2820, 215.7988
179.5050, 192.7617
180.7290, 218.6519
181.9520, 73.16846
183.1760, 152.7422
184.3990, 224.9712
185.6220, 230.9717
186.8450, 352.9888
188.0670, 398.0234
189.2900, 337.0747
190.5120, 439.1411
191.7340, 377.2246
192.9560, 417.3237
194.1780, 437.9067
195.4000, 386.0200
196.6220, 313.1797
197.8430, 360.1851
199.0640, 399.2646
200.2860, 421.9761
201.5070, 275.9326
202.7270, 429.8887
203.9480, 391.4009
205.1690, 170.2173
206.3890, 69.26172
207.6090, 134.3218
208.8290, 120.6929
210.0490, 116.7583
211.2690, 103.0698
212.4890, 99.14062
213.7080, 129.1836
214.9280, 149.1089
216.1470, 48.18311
217.3660, 75.75293
218.5850, 31.83691
219.8030, 14.27881
221.0220, 47.27002
222.2400, 3.175781
223.4590, 65.01270
224.6770, 58.11865
225.8950, 125.2339
227.1120, 91.51172
228.3300, 145.6177
229.5480, 83.73193
230.7650, 135.7139
231.9820, 43.75586
233.1990, 26.66357
234.4160, 142.7070
235.6330, 23.75928
236.8490, 66.21191
238.0660, 28.28076
239.2820, 137.3579
240.4980, 140.2124
241.7140, 70.88965
242.9300, 6.389648
244.1460, 29.47217
245.3610, 56.70459
246.5770, 5.065918
247.7920, 103.5386
249.0070, 6.107910
250.2220, 25.76367
251.4370, 62.49658
252.6510, 69.29932
253.8660, 10.16455
255.0800, 74.08789
256.2940, 27.06299
257.5080, 2.892090
258.7220, 148.1968
259.9360, 197.3262
261.1490, 52.49365
262.3630, 3.696777
263.5760, 58.94629
264.7890, 110.2266
266.0020, 20.46484
267.2150, 12.86816
268.4270, 6.441406
269.6400, 29.17725
270.8520, 74.22217
272.0640, 97.69971
273.2760, 78.13818
274.4880, 17.87939
275.7000, 6.591309
276.9120, 52.07764
278.1230, 32.57959
279.3340, 95.23633
280.5450, 46.76611
281.7560, 27.30811
282.9670, 59.87891
284.1780, 25.45996
285.3880, 41.05273
286.5980, 71.65527
287.8090, 24.26807
289.0190, 16.89062
290.2290, 122.5220
291.4380, 9.161621
292.6480, 24.19092
293.8570, 94.45947
295.0670, 67.11572
296.2760, 6.777344
297.4850, 1.446289
298.6930, 86.11914
299.9020, 18.20361
301.1110, 78.52539
302.3190, 21.13867
303.5270, 96.79395
304.7350, 8.547363
305.9430, 66.11279
307.1510, 22.22461
308.3580, 2.563477
309.5660, 54.09814
310.7730, 26.23730
311.9800, 19.57764
313.1870, 95.08008
314.3940, 9.740234
315.6010, 78.59668
316.8070, 65.05029
318.0130, 73.69971
319.2200, 87.35254
320.4260, 89.00830
321.6310, 82.86670
322.8370, 30.67285
324.0430, 82.98242
325.2480, 17.64062
326.4540, 62.29639
327.6590, 29.05176
328.8640, 63.59473
330.0680, 20.24023
331.2730, 62.88818
332.4780, 39.46191
333.6820, 6.820313
334.8860, 40.82031
336.0900, 102.4634
337.2940, 52.10889
338.4980, 16.24414
339.7010, 133.3931
340.9050, 44.03223
342.1080, 71.67285
343.3110, 42.28467
344.5140, 16.10059
345.7170, 20.50635
346.9200, 9.893555
348.1220, 45.69580
349.3240, 119.2808
350.5270, 8.156738
351.7290, 143.4043
352.9310, 72.96680
354.1320, 74.52197
355.3340, 23.07910
356.5350, 67.62842
357.7370, 86.18066
358.9380, 41.27832
360.1390, 155.2485
361.3400, 190.7778
362.5400, 71.30225
363.7410, 146.8296
364.9410, 52.38330
366.1410, 131.2837
367.3410, 185.1714
368.5410, 36.65479
369.7410, 20.86035
370.9400, 58.61914
372.1400, 64.08740
373.3390, 153.5581
374.5380, 89.03076
375.7370, 104.4678
376.9360, 27.90771
378.1350, 6.341797
379.3330, 93.15332
380.5310, 133.6025
381.7300, 81.05176
382.9280, 141.5034
384.1260, 254.9575
385.3230, 123.4199
386.5210, 128.8921
387.7180, 224.3745
388.9160, 111.8638
390.1130, 148.3604
391.3100, 96.86230
392.5060, 39.37012
393.7030, 252.8828
394.9000, 236.3999
396.0960, 261.9219
397.2920, 182.4473
398.4880, 84.97607
399.6840, 245.5088
400.8800, 207.9580
402.0750, 171.4556
403.2710, 88.99658
404.4660, 77.12598
405.6610, 128.0859
406.8560, 78.75488
408.0510, 39.30371
409.2450, 135.8535
410.4400, 116.8579
411.6340, 19.41113
412.8280, 67.96240
414.0220, 95.58154
415.2160, 26.15332
416.4100, 100.7407
417.6030, 10.32910
418.7970, 62.39307
419.9900, 68.98047
421.1830, 52.56738
422.3760, 22.15527
423.5690, 90.74121
424.7610, 39.32764
425.9540, 36.40137
427.1460, 142.9878
428.3380, 199.5742
429.5300, 125.1602
430.7220, 81.74707
431.9140, 230.3330
433.1050, 130.9180
434.2970, 316.5039
435.4880, 270.0889
436.6790, 413.6611
437.8700, 546.2461
439.0610, 799.8301
440.2510, 777.5596
441.4420, 1036.122
442.6320, 1301.709
443.8220, 1561.123
445.0120, 2091.971
446.2020, 2339.555
447.3910, 2891.141
448.5810, 3446.273
449.7700, 3971.858
450.9600, 4725.307
452.1490, 5163.664
453.3370, 5535.258
454.5260, 5311.459
455.7150, 4781.977
456.9030, 4568.568
458.0910, 4487.162
459.2800, 4532.371
460.4670, 4474.965
461.6550, 4160.557
462.8430, 3622.148
464.0300, 2901.741
465.2180, 2197.336
466.4050, 1457.113
467.5920, 950.7070
468.7790, 834.3008
469.9650, 605.8926
471.1520, 452.6846
472.3380, 511.2793
473.5250, 308.8750
474.7110, 243.4707
475.8970, 307.6279
477.0820, 187.5107
478.2680, 92.10742
479.4540, 244.7090
480.6390, 254.3105
481.8240, 224.6592
483.0090, 170.2676
484.1940, 78.87891
485.3780, 142.4912
486.5630, 155.1045
487.7470, 65.40918
488.9320, 84.04492
490.1160, 88.66113
491.3000, 166.2969
492.4830, 91.93457
493.6670, 236.6074
494.8500, 87.24609
496.0340, 118.8857
497.2170, 111.5273
498.4000, 168.1699
499.5820, 114.8135
500.7650, 185.4570
501.9480, 62.21289
503.1300, 63.86914
504.3120, 79.52637
505.4940, 114.1846
506.6760, 9.843750
507.8580, 100.5039
509.0390, 51.82617
510.2210, 82.49512
511.4020, 266.1650
512.5830, 133.0635
513.7640, 192.7441
514.9450, 138.4258
516.1250, 325.1084
517.3060, 168.7930
518.4860, 186.4795
519.6660, 83.16602
520.8460, 3.938477
522.0260, 108.7480
523.2060, 151.4355
524.3850, 51.12500
525.5650, 280.8154
526.7440, 26.50684
527.9230, 106.1992
529.1020, 92.89453
530.2810, 201.5898
531.4590, 94.28711
532.6380, 40.98340
533.8160, 95.68262
534.9940, 90.38281
536.1720, 101.0830
537.3500, 73.78418
538.5270, 164.4873
539.7050, 36.19043
540.8820, 11.89453
542.0590, 80.39941
543.2360, 87.40137
544.4130, 154.0674
545.5900, 176.7354
546.7660, 46.40332
547.9430, 51.92871
549.1190, 195.7139
550.2950, 37.36328
551.4710, 132.0186
552.6470, 148.6660
553.8220, 81.09668
554.9980, 74.74512
556.1730, 50.79395
557.3480, 113.0322
558.5230, 123.6865
559.6980, 11.25586
560.8730, 80.91211
562.0470, 86.56934
563.2220, 143.2266
564.3960, 124.7422
565.5700, 32.40039
566.7440, 54.94238
567.9170, 121.6836
569.0910, 32.31152
570.2640, 107.9580
571.4380, 23.60449
572.6110, 87.25098
573.7840, 31.89746
574.9570, 50.54297
576.1290, 177.1895
577.3020, 71.87695
578.4740, 81.56934
579.6460, 100.2617
580.8180, 0.1005860
581.9900, 64.79004
583.1620, 64.79297
584.3330, 86.48242
585.5040, 130.1758
586.6760, 130.8877
587.8470, 160.5996
589.0180, 114.3105
590.1880, 124.0244
591.3590, 178.7373
592.5290, 101.3721
593.7000, 211.0938
594.8700, 129.8145
596.0400, 177.5410
597.2090, 87.27344
598.3790, 234.0049
599.5490, 102.7354
600.7180, 240.4844
601.8870, 267.2324
603.0560, 394.9824
604.2250, 485.8613
605.3940, 652.6094
606.5620, 705.3574
607.7300, 976.1123
608.8990, 1276.867
610.0670, 1645.631
611.2350, 1837.549
612.4020, 2301.340
613.5700, 2733.223
614.7370, 3455.021
615.9050, 3682.831
617.0720, 3824.718
618.2390, 3366.539
619.4060, 2954.112
620.5720, 2522.948
621.7390, 1935.144
622.9050, 1702.983
624.0710, 1393.424
625.2370, 1332.262
626.4030, 1241.098
627.5690, 1298.729
628.7340, 1292.570
629.9000, 1216.410
631.0650, 1215.254
632.2300, 1045.095
633.3950, 938.9355
634.5600, 891.7793
635.7240, 798.7822
636.8890, 662.6240
638.0530, 655.4629
639.2170, 776.3018
640.3810, 581.1377
641.5450, 743.9727
642.7080, 839.9707
643.8720, 713.9160
645.0350, 715.7598
646.1980, 737.6016
647.3610, 693.4102
648.5240, 607.3447
649.6870, 536.2168
650.8490, 455.6680
652.0120, 422.6201
653.1740, 281.5000
654.3360, 207.3770
655.4980, 122.2529
656.6600, 89.12598
657.8210, 148.9980
658.9830, 263.8672
660.1440, 34.26465
661.3050, 189.2148
662.4660, 91.05762
663.6270, 108.8984
664.7870, 138.7383
665.9480, 76.57520
667.1080, 100.4092
668.2680, 100.2432
669.4280, 132.0732
670.5880, 74.91016
671.7480, 149.7393
672.9070, 87.56445
674.0670, 106.3867
675.2260, 91.20605
676.3850, 73.27441
677.5440, 165.8398
678.7030, 97.65332
679.8610, 47.46484
681.0200, 143.2744
682.1780, 9.467773
683.3360, 45.27148
684.4940, 143.0713
685.6520, 108.9189
686.8090, 147.7158
687.9670, 90.38672
689.1240, 20.17871
690.2810, 18.96875
691.4380, 113.7568
692.5950, 44.54199
693.7520, 23.32617
694.9080, 64.89258
696.0650, 52.82031
697.2210, 50.55762
698.3770, 1.737305
699.5330, 85.96484
700.6880, 195.6650
701.8440, 140.3613
702.9990, 76.05664
704.1550, 48.74902
705.3100, 52.44043
706.4650, 52.64160
707.6190, 22.32812
708.7740, 85.37207
709.9290, 58.05273
711.0830, 72.68262
712.2370, 85.42773
713.3910, 103.0820
714.5450, 96.75391
715.6980, 156.0635
716.8520, 169.7285
718.0050, 142.2207
719.1580, 19.04980
720.3110, 117.5605
721.4640, 10.21191
722.6170, 75.85742
723.7700, 50.50000
724.9220, 37.13965
726.0740, 160.7764
727.2260, 121.4082
728.3780, 76.03711
729.5300, 140.6631
730.6810, 19.64160
731.8330, 100.0518
732.9840, 185.6504
734.1350, 84.24609
735.2860, 227.8379
736.4370, 46.42578
737.5880, 122.0107
738.7380, 106.5908
739.8880, 60.16992
741.0390, 103.7432
742.1890, 22.31348
743.3380, 101.8779
744.4880, 64.47852
745.6380, 170.0371
746.7870, 177.5908
747.9360, 118.4072
749.0850, 24.02734
750.2340, 69.97363
751.3830, 31.59180
752.5310, 69.70215
753.6800, 60.83203
754.8280, 37.35449
755.9760, 63.87305
757.1240, 4.386719
758.2720, 63.30566
759.4190, 4.198242
760.5670, 106.2822
761.7140, 10.75684
762.8610, 52.22070
764.0080, 115.6807
765.1550, 58.86426
766.3020, 60.54492
767.4480, 89.94922
768.5950, 154.3477
769.7410, 141.7412
770.8870, 75.12988
772.0330, 194.5186
773.1780, 32.90332
774.3240, 140.2852
775.4690, 117.6660
776.6140, 180.0527
777.7590, 181.4326
778.9040, 174.8086
780.0490, 16.81934
781.1940, 37.52832
782.3380, 60.87598
783.4820, 167.2188
784.6260, 91.55469
785.7700, 37.88867
786.9140, 93.21484
788.0580, 159.5381
789.2010, 9.143555
790.3450, 168.1387
791.4880, 122.4316
792.6310, 89.72070
793.7730, 255.0039
794.9160, 101.2812
796.0590, 144.5869
797.2010, 262.8867
798.3430, 99.58887
799.4850, 134.8809
800.6270, 143.1689
801.7690, 146.4512
802.9100, 150.1787
804.0520, 121.3623
805.1930, 133.2686
806.3340, 65.53223
807.4750, 48.79004
808.6160, 50.04297
809.7560, 123.2910
810.8970, 52.53418
812.0370, 91.77148
813.1770, 170.0049
814.3170, 61.23242
815.4570, 193.4570
816.5960, 130.6758
817.7360, 82.89062
818.8750, 20.09961
820.0140, 53.18750
821.1530, 55.40527
822.2920, 40.13770
823.4310, 106.8281
824.5690, 57.03223
825.7070, 54.24512
826.8460, 102.4473
827.9840, 121.6387
829.1220, 58.83789
830.2590, 92.03223
831.3970, 83.22266
832.5340, 177.0127
833.6710, 150.5518
834.8080, 165.8398
835.9450, 109.4600
837.0820, 168.6299
838.2190, 118.7939
839.3550, 141.9551
840.4910, 182.1113
841.6270, 175.2656
842.7630, 89.41406
843.8990, 173.5742
845.0350, 57.27148
846.1700, 146.8438
847.3060, 53.95410
848.4410, 204.0605
849.5760, 49.16309
850.7100, 76.26270
851.8450, 141.6426
852.9800, 248.3721
854.1140, 180.3848
855.2480, 345.3926
856.3820, 150.2480
857.5160, 229.2500
858.6500, 73.93457
859.7830, 135.9297
860.9170, 201.9199
862.0500, 52.90625
863.1830, 299.8887
864.3160, 69.86816
865.4480, 121.8447
866.5810, 23.81738
867.7130, 19.86914
868.8460, 128.8340
869.9780, 131.7939
871.1100, 118.7520
872.2410, 191.7051
873.3730, 104.6562
874.5050, 72.60352
875.6360, 76.54688
876.7670, 92.48828
877.8980, 140.4277
879.0290, 119.1807
880.1590, 23.16309
881.2900, 81.09180
882.4200, 34.01855
883.5500, 27.05859
884.6800, 8.159180
885.8100, 45.41113
886.9400, 65.43262
888.0690, 17.80762
889.1990, 32.97363
890.3280, 78.83398
891.4570, 60.57129
892.5860, 53.37305
893.7140, 46.57715
894.8430, 31.19043
895.9710, 127.5938
897.1000, 232.3555
898.2280, 141.5146
899.3560, 202.5020
900.4830, 30.02832
901.6110, 183.9844
902.7380, 115.7363
903.8660, 136.4854
904.9930, 67.23340
906.1200, 236.9795
907.2460, 57.70703
908.3730, 208.4492
909.5000, 48.73926
910.6260, 40.51562
911.7520, 151.3994
912.8780, 48.13379
914.0040, 95.86914
915.1290, 141.6006
916.2550, 237.1807
917.3800, 31.00391
918.5050, 58.73047
919.6300, 306.4561
920.7550, 105.1807
921.8800, 104.8076
923.0040, 227.8955
924.1290, 141.6230
925.2530, 11.31445
926.3770, 169.4004
927.5010, 67.11426
928.6250, 126.8301
929.7480, 157.5439
930.8720, 86.76074
931.9950, 201.4717
933.1180, 41.18164
934.2410, 79.90039
935.3640, 149.6279
936.4860, 122.3545
937.6090, 137.0791
938.7310, 197.8027
939.8530, 106.5254
940.9750, 127.2490
942.0970, 141.9727
943.2180, 178.6885
944.3400, 90.41406
945.4610, 147.1416
946.5820, 70.86914
947.7030, 136.5957
948.8240, 198.3223
949.9450, 172.0469
951.0650, 139.7715
952.1860, 199.4961
953.3060, 105.2197
954.4260, 159.6992
955.5460, 102.3633
956.6650, 172.0850
957.7850, 238.7568
958.9040, 155.4785
960.0230, 128.1992
961.1420, 359.9209
962.2610, 199.6396
963.3800, 339.3662
964.4990, 264.0918
965.6170, 474.8164
966.7350, 329.5420
967.8530, 480.2861
968.9710, 447.0439
970.0890, 598.8037
971.2070, 393.5654
972.3240, 598.3271
973.4410, 708.0957
974.5580, 985.8652
975.6750, 1051.633
976.7920, 1211.402
977.9090, 1777.171
979.0250, 2491.941
980.1410, 3689.351
981.2580, 6114.119
982.3740, 10255.89
983.4890, 14370.97
984.6050, 20516.44
985.7200, 26345.21
986.8360, 34584.66
987.9510, 43448.44
989.0660, 45950.21
990.1810, 36474.99
991.2950, 22921.77
992.4100, 12710.55
993.5240, 6724.346
994.6390, 4141.143
995.7530, 2690.941
996.8660, 1802.744
997.9800, 1348.551
999.0940, 1057.356
1000.207, 884.1660
1001.320, 719.9033
1002.433, 638.6328
1003.546, 589.4561
1004.659, 552.2803
1005.772, 363.1064
1006.884, 262.9355
1007.996, 312.7666
1009.108, 300.6035
1010.220, 386.4424
1011.332, 418.2832
1012.444, 333.1279
1013.555, 240.9736
1014.666, 272.7842
1015.777, 240.6348
1016.888, 289.4893
1017.999, 273.9893
1019.110, 252.4238
1020.220, 266.3193
1021.331, 180.1846
1022.441, 172.3936
1023.551, 97.66211
1024.661, 208.5352
1025.770, 69.41406
1026.880, 154.2949
1027.989, 93.76562
1029.098, 15.66211
1030.207, 130.5674
1031.316, 219.4766
1032.425, 2088.393
1033.533, 1914.312
1034.642, 2349.234
1035.750, 1606.182
1036.858, 305.1318
1037.966, 58.08691
1039.073, 106.0449
1040.181, 26.99316
1041.288, 167.9629
1042.396, 21.07617
1043.503, 28.11816
1044.610, 48.16602
1045.716, 153.7695
1046.823, 16.70996
1047.929, 135.6553
1049.036, 177.6035
1050.142, 31.43457
1051.248, 99.52148
1052.353, 223.4805
1053.459, 75.44336
1054.564, 72.41113
1055.670, 12.05273
1056.775, 133.9189
1057.880, 12.89648
1058.985, 128.9004
1060.089, 246.8916
1061.194, 38.18066
1062.298, 172.1816
1063.402, 133.8145
1064.506, 67.12891
1065.610, 141.0771
1066.713, 96.03613
1067.817, 221.8848
1068.920, 119.8467
1070.023, 187.8115
1071.126, 213.7803
1072.229, 193.7539
1073.332, 242.1777
1074.435, 134.3379
1075.537, 286.3232
1076.639, 356.0254
1077.741, 393.0195
1078.843, 570.0176
1079.945, 475.0215
1081.046, 657.0293
1082.148, 721.0400
1083.249, 864.0547
1084.350, 819.1309
1085.451, 786.1533
1086.551, 834.1807
1087.652, 855.2139
1088.752, 326.2520
1089.853, 415.3076
1090.953, 248.3682
1092.053, 213.4326
1093.152, 343.5020
1094.252, 290.5811
1095.351, 208.8408
1096.451, 282.9297
1097.550, 152.0215
1098.649, 415.1191
1099.748, 438.2207
1100.846, 337.3271
1101.945, 618.4619
1103.043, 419.6016
1104.141, 583.7441
1105.239, 543.2773
1106.337, 471.4287
1107.434, 279.5830
1108.532, 274.7432
1109.629, 272.9062
1110.726, 130.0732
1111.823, 162.2451
1112.920, 273.4570
1114.017, 218.6738
1115.113, 166.9229
1116.210, 16.17480
1117.306, 112.4316
1118.402, 31.30762
1119.498, 155.9863
1120.593, 137.2861
1121.689, 223.5898
1122.784, 201.8965
1123.879, 161.2080
1124.974, 140.1201
1126.069, 162.8496
1127.164, 183.6016
1128.259, 241.1348
1129.353, 254.4658
1130.447, 323.7998
1131.541, 355.9678
1132.635, 312.4795
1133.729, 425.8252
1134.822, 511.1748
1135.916, 525.5381
1137.009, 727.9043
1138.102, 766.2754
1139.195, 921.6514
1140.288, 958.9531
1141.380, 955.3408
1142.473, 1051.732
1143.565, 658.1279
1144.657, 891.5283
1145.749, 720.9316
1146.841, 960.3398
1147.932, 521.7539
1149.024, 735.1709
1150.115, 486.6016
1151.206, 353.0508
1152.297, 424.5693
1153.388, 400.0400
1154.479, 256.5205
1155.569, 230.0166
1156.659, 247.5303
1157.750, 282.0479
1158.839, 210.7861
1159.929, 232.7842
1161.019, 341.3262
1162.108, 343.8721
1163.198, 326.4189
1164.287, 358.9697
1165.376, 539.5244
1166.465, 604.0811
1167.553, 518.6387
1168.642, 531.2002
1169.730, 492.7646
1170.818, 373.3311
1171.906, 353.9170
1172.994, 162.4883
1174.082, 198.3516
1175.170, 129.8906
1176.257, 179.3232
1177.344, 77.05176
1178.431, 113.6357
1179.518, 179.2217
1180.605, 149.8125
1181.691, 166.4277
1182.778, 142.8027
1183.864, 124.3994
1184.950, 25.99805
1186.036, 33.40039
1187.122, 24.83105
1188.207, 54.44531
1189.292, 191.0615
1190.378, 107.6855
1191.463, 7.688477
1192.548, 26.93652
1193.632, 139.5635
1194.717, 104.6865
1195.801, 92.31738
1196.886, 0.9511720
1197.970, 41.41211
1199.054, 124.2080
1200.137, 74.83301
1201.221, 126.4580
1202.305, 91.11328
1203.388, 17.25586
1204.471, 76.37012
1205.554, 22.00000
1206.637, 37.36816
1207.719, 116.3818
1208.802, 89.00098
1209.884, 11.74023
1210.966, 271.3643
1212.048, 119.9932
1213.130, 16.62402
1214.212, 1.744141
1215.293, 106.8887
1216.374, 74.52246
1217.456, 214.1592
1218.536, 102.7969
1219.617, 122.7578
1220.698, 160.3975
1221.778, 12.03906
1222.859, 173.6826
1223.939, 71.90234
1225.019, 24.44629
1226.099, 96.19434
1227.178, 70.83789
1228.258, 88.48242
1229.337, 125.3135
1230.417, 48.07520
1231.496, 204.4629
1232.574, 85.11133
1233.653, 51.76074
1234.732, 24.58984
1235.810, 76.07617
1236.888, 173.7139
1237.966, 176.3525
1239.044, 75.99121
1240.122, 56.64355
1241.199, 322.2959
1242.277, 97.21777
1243.354, 228.1113
1244.431, 294.2627
1245.508, 67.92480
1246.585, 113.5879
1247.661, 88.24902
1248.738, 64.75000
1249.814, 182.5693
1250.890, 311.2275
1251.966, 103.8867
1253.042, 34.54297
1254.117, 21.80078
1255.193, 122.9131
1256.268, 9.447266
1257.343, 2.183594
1258.418, 121.8379
1259.493, 69.46289
1260.567, 140.0869
1261.642, 32.70801
1262.716, 79.32910
1263.790, 151.9492
1264.864, 67.70801
1265.938, 79.53125
1267.011, 69.27832
1268.085, 99.98730
1269.158, 8.072266
1270.231, 141.5283
1271.304, 85.12695
1272.377, 197.0449
1273.450, 222.6396
1274.522, 244.2324
1275.594, 169.4180
1276.666, 126.0127
1277.738, 52.84375
1278.810, 66.60840
1279.882, 232.3320
1280.953, 23.91602
1282.025, 138.4971
1283.096, 302.0752
1284.167, 188.6504
1285.238, 234.8066
1286.308, 182.3740
1287.379, 8.939453
1288.449, 3.690430
1289.519, 166.2402
1290.589, 223.7861
1291.659, 147.3301
1292.729, 208.8682
1293.798, 227.4043
1294.868, 279.9355
1295.937, 141.4648
1297.006, 246.9873
1298.075, 110.5068
1299.143, 200.0234
1300.212, 102.5352
1301.280, 215.0469
1302.348, 116.5547
1303.416, 253.0645
1304.484, 195.5723
1305.552, 16.08594
1306.620, 249.5938
1307.687, 175.0957
1308.754, 180.6035
1309.821, 218.0977
1310.888, 124.6133
1311.955, 236.1055
1313.021, 126.5898
1314.088, 64.07422
1315.154, 92.98828
1316.220, 213.6758
1317.286, 197.2637
1318.352, 167.7305
1319.417, 232.1992
1320.483, 99.37109
1321.548, 206.8301
1322.613, 203.2852
1323.678, 154.7715
1324.743, 97.25781
1325.807, 247.7344
1326.872, 188.3242
1327.936, 194.8672
1329.000, 80.34570
1330.064, 57.82227
1331.128, 212.2969
1332.191, 278.1426
1333.255, 185.6133
1334.318, 130.0840
1335.381, 32.82422
1336.444, 114.2734
1337.507, 37.73242
1338.569, 189.3887
1339.632, 227.1113
1340.694, 218.5156
1341.756, 112.9141
1342.818, 251.2578
1343.880, 74.65625
1344.941, 158.0488
1346.003, 145.4199
1347.064, 37.25000
1348.125, 239.0605
1349.186, 224.4570
1350.247, 209.9297
1351.308, 8.835938
1352.368, 229.4551
1353.428, 138.8867
1354.489, 153.4785
1355.549, 130.7598
1356.608, 29.03711
1357.668, 46.29492
1358.727, 75.45117
1359.787, 178.9062
1360.846, 219.2344
1361.905, 159.4414
1362.964, 67.25391
1364.022, 190.4473
1365.081, 331.9883
1366.139, 136.1621
1367.197, 101.0859
1368.255, 301.6602
1369.313, 51.07031
1370.371, 26.04102
1371.428, 85.45312
1372.486, 184.6191
1373.543, 87.68945
1374.600, 161.7539
1375.657, 45.81445
1376.713, 44.87695
1377.770, 100.9336
1378.826, 93.98438
1379.882, 91.03125
1380.938, 120.5723
1381.994, 65.61328
1383.050, 114.6035
1384.106, 148.9238
1385.161, 76.69727
1386.216, 125.6738
1387.271, 133.6426
1388.326, 264.6055
1389.381, 262.5625
1390.435, 167.7324
1391.490, 17.32031
1392.544, 35.61133
1393.598, 53.53125
1394.652, 62.66016
1395.705, 4.431641
1396.759, 233.5488
1397.812, 117.4375
1398.866, 20.32617
1399.919, 122.1914
1400.972, 316.0488
1402.024, 7.898438
1403.077, 301.1074
1404.129, 31.94141
1405.181, 45.76953
1406.233, 17.40820
1407.285, 142.3945
1408.337, 325.0977
1409.389, 228.8457
1410.440, 230.5527
1411.491, 40.74414
1412.542, 244.9336
1413.593, 151.6055
1414.644, 43.05273
1415.695, 148.2500
1416.745, 250.8984
1417.795, 91.75000
1418.845, 153.3848
1419.895, 268.0117
1420.945, 238.6309
1421.995, 214.2422
1423.044, 161.8457
1424.093, 148.0410
1425.142, 157.0332
1426.191, 126.5859
1427.240, 128.8672
1428.289, 164.8828
1429.337, 138.2969
1430.385, 194.8242
1431.433, 183.3496
1432.481, 199.7285
1433.529, 347.2422
1434.577, 88.75586
1435.624, 168.2676
1436.672, 86.78125
1437.719, 229.2988
1438.766, 256.8184
1439.812, 167.3496
1440.859, 133.8926
1441.905, 68.54102
1442.952, 65.02930
1443.998, 144.6348
1445.044, 359.4590
1446.090, 151.1699
1447.135, 184.7676
1448.181, 182.0039
1449.226, 173.2344
1450.271, 233.4707
1451.316, 227.7090
1452.361, 132.9160
1453.405, 82.14844
1454.450, 346.2480
1455.494, 315.3652
1456.538, 254.5957
1457.582, 125.8242
1458.626, 151.0469
1459.670, 125.2656
1460.713, 234.7539
1461.757, 163.9316
1462.800, 93.29688
1463.843, 45.44922
1464.886, 33.37695
1465.928, 226.6230
1466.971, 223.6875
1468.013, 303.7227
1469.055, 217.7949
1470.097, 283.6797
1471.139, 239.5957
1472.181, 266.1328
1473.222, 210.9863
1474.263, 63.63477
1475.305, 44.26562
1476.346, 7.792969
1477.386, 95.83398
1478.427, 16.67578
1479.468, 18.48633
1480.508, 185.3301
1481.548, 236.1680
1482.588, 186.7188
1483.628, 147.1875
1484.668, 50.07422
1485.707, 56.37500
1486.747, 105.1328
1487.786, 97.99219
1488.825, 177.0918
1489.864, 7.550781
1490.902, 189.2188
1491.941, 41.71875
1492.979, 1.130859
1494.017, 45.15430
1495.055, 81.74219
1496.093, 35.67383
1497.131, 178.9062
1498.168, 301.4863
1499.206, 111.0664
1500.243, 173.6465
1501.280, 227.2207
1502.317, 138.8027
1503.354, 106.3652
1504.390, 100.9102
1505.426, 57.48828
1506.463, 87.06641
1507.499, 189.2891
1508.535, 30.67578
1509.570, 228.0508
1510.606, 373.4062
1511.641, 276.7266
1512.676, 151.8848
1513.711, 306.1387
1514.746, 20.35742
1515.781, 247.5332
1516.816, 286.7402
1517.850, 222.3984
1518.884, 20.94336
1519.918, 169.1934
1520.952, 84.40820
1521.986, 328.7910
1523.019, 119.0195
1524.053, 375.5566
1525.086, 129.0469
1526.119, 226.5078
1527.152, 25.19336
1528.185, 146.7461
1529.217, 257.7520
1530.250, 251.0996
1531.282, 287.4805
1532.314, 267.5664
1533.346, 214.4609
1534.377, 187.5957
1535.409, 177.5469
1536.440, 133.4590
1537.472, 156.3223
1538.503, 241.7695
1539.534, 175.6895
1540.564, 301.0430
1541.595, 11.04883
1542.625, 193.0332
1543.656, 127.0117
1544.686, 231.9180
1545.716, 145.7852
1546.745, 250.6133
1547.775, 251.6445
1548.804, 259.3750
1549.834, 261.3125
1550.863, 260.8242
1551.892, 35.46094
1552.920, 243.6367
1553.949, 258.0684
1554.977, 205.5664
1556.006, 441.1523
1557.034, 348.9844
1558.062, 286.6699
1559.089, 398.5469
1560.117, 94.57227
1561.144, 348.6973
1562.172, 201.8906
1563.199, 166.8086
1564.226, 288.4531
1565.252, 278.1484
1566.279, 183.0957
1567.305, 259.9180
1568.332, 1.832031
1569.358, 330.9824
1570.384, 0.0000000E+00
##END=



