##NAMES=Beryl
##RRUFFID=R050305
##IDEAL CHEMISTRY=Be_3_Al_2_Si_6_O_18_
##LOCALITY=Conselheiro Pena, Minas Gerais, Brazil
##OWNER=RRUFF
##SOURCE=Eugene Schlepp
##DESCRIPTION=Light blue fragment, variety aquamarine
##STATUS=The identification of this mineral has been confirmed by X-ray diffraction and chemical analysis
##URL=rruff.info/R050305
##MEASURED CHEMISTRY=(Be_0.91_Li_0.09_)_3_(Al_0.99_Fe^3+^_0.01_)_2_Si_6.00_O_18_Î‡Na_0.27_
##PIN_ID=L00797
##ORIENTATION=Laser parallel to c* (0 0 1). Fiducial mark perpendicular to laser is parallel to [-1 -1 0]
95.94800, 0.0000000E+00
97.18200, 180.5977
98.41600, 15.83496
99.64900, 104.1963
100.8830, 112.1445
102.1160, 203.2969
103.3490, 710.2734
104.5820, 301.5625
105.8150, 597.7051
107.0470, 1076.902
108.2800, 1829.799
109.5120, 2362.321
110.7440, 2143.687
111.9760, 1985.359
113.2080, 2354.760
114.4400, 2602.397
115.6710, 3022.860
116.9030, 3099.896
118.1340, 3382.246
119.3650, 3295.634
120.5960, 3229.817
121.8270, 3359.595
123.0580, 3384.796
124.2880, 3324.308
125.5190, 3291.131
126.7490, 3253.281
127.9790, 3274.398
129.2090, 3339.425
130.4390, 3529.276
131.6680, 3385.874
132.8980, 3421.152
134.1270, 3233.033
135.3560, 3320.549
136.5850, 3248.460
137.8140, 3275.895
139.0430, 3117.002
140.2710, 3060.389
141.5000, 2751.072
142.7280, 2519.008
143.9560, 2361.188
145.1840, 2117.600
146.4120, 2016.235
147.6390, 1918.088
148.8670, 1633.147
150.0940, 1514.406
151.3210, 1705.855
152.5490, 1684.365
153.7750, 1524.112
155.0020, 1790.416
156.2290, 1680.913
157.4550, 1721.262
158.6810, 1757.620
159.9080, 1887.008
161.1340, 1835.616
162.3590, 1805.254
163.5850, 2008.910
164.8110, 2171.594
166.0360, 2138.316
167.2610, 2130.094
168.4860, 2139.928
169.7110, 2132.757
170.9360, 2228.414
172.1610, 1957.968
173.3850, 2022.471
174.6100, 1958.320
175.8340, 2055.310
177.0580, 1873.414
178.2820, 1840.427
179.5050, 1808.496
180.7290, 1752.014
181.9520, 1632.050
183.1760, 1397.161
184.3990, 1348.349
185.6220, 1215.200
186.8450, 1168.536
188.0670, 1122.949
189.2900, 1120.440
190.5120, 1009.008
191.7340, 1147.650
192.9560, 1045.366
194.1780, 1045.154
195.4000, 904.0117
196.6220, 910.9395
197.8430, 900.9316
199.0640, 851.9883
200.2860, 794.1035
201.5070, 801.2764
202.7270, 873.5010
203.9480, 571.7812
205.1690, 220.1104
206.3890, 168.4902
207.6090, 149.0811
208.8290, 53.60059
210.0490, 75.06836
211.2690, 86.49805
212.4890, 91.10938
213.7080, 111.2422
214.9280, 3.546875
216.1470, 160.7666
217.3660, 52.79492
218.5850, 116.4297
219.8030, 78.08398
221.0220, 154.3633
222.2400, 303.4375
223.4590, 196.2998
224.6770, 89.96680
225.8950, 277.6670
227.1120, 389.4443
228.3300, 309.1895
229.5480, 346.0332
230.7650, 478.9512
231.9820, 496.0664
233.1990, 376.3740
234.4160, 445.8184
235.6330, 470.5439
236.8490, 381.5254
238.0660, 485.6152
239.2820, 411.7393
240.4980, 271.9004
241.7140, 376.0586
242.9300, 233.5791
244.1460, 226.7305
245.3610, 208.2490
246.5770, 144.1465
247.7920, 198.6621
249.0070, 95.69629
250.2220, 86.17188
251.4370, 124.0293
252.6510, 84.78027
253.8660, 21.30957
255.0800, 248.5791
256.2940, 142.6592
257.5080, 6.446289
258.7220, 76.74316
259.9360, 244.2129
261.1490, 316.8418
262.3630, 116.6133
263.5760, 159.4814
264.7890, 140.5137
266.0020, 112.6182
267.2150, 148.8262
268.4270, 159.1289
269.6400, 235.5186
270.8520, 226.9883
272.0640, 120.5283
273.2760, 1.868164
274.4880, 338.7910
275.7000, 153.5039
276.9120, 439.2676
278.1230, 136.0791
279.3340, 324.9307
280.5450, 459.8242
281.7560, 501.7549
282.9670, 580.7148
284.1780, 742.7031
285.3880, 815.7168
286.5980, 1087.751
287.8090, 1274.807
289.0190, 1379.885
290.2290, 1671.979
291.4380, 1782.092
292.6480, 2101.222
293.8570, 2211.365
295.0670, 1957.521
296.2760, 1753.691
297.4850, 1450.874
298.6930, 1290.016
299.9020, 884.1309
301.1110, 653.2285
302.3190, 556.2910
303.5270, 452.3506
304.7350, 360.4102
305.9430, 321.4678
307.1510, 552.5215
308.3580, 511.5703
309.5660, 695.6143
310.7730, 616.6533
311.9800, 1028.688
313.1870, 946.7148
314.3940, 1260.737
315.6010, 1472.752
316.8070, 1665.763
318.0130, 1859.337
319.2200, 2078.947
320.4260, 2192.989
321.6310, 2318.183
322.8370, 2552.001
324.0430, 2332.815
325.2480, 2287.689
326.4540, 1764.443
327.6590, 1514.516
328.8640, 999.4639
330.0680, 840.4795
331.2730, 467.0303
332.4780, 392.0771
333.6820, 67.82910
334.8860, 173.1279
336.0900, 65.17480
337.2940, 92.51367
338.4980, 203.6758
339.7010, 180.5098
340.9050, 46.03223
342.1080, 135.5918
343.3110, 116.2070
344.5140, 75.86133
345.7170, 253.5752
346.9200, 131.3818
348.1220, 64.00977
349.3240, 33.08203
350.5270, 7.628906
351.7290, 95.44238
352.9310, 149.2021
354.1320, 47.84473
355.3340, 96.69238
356.5350, 83.78027
357.7370, 101.4111
358.9380, 176.8252
360.1390, 172.1797
361.3400, 280.5244
362.5400, 327.9082
363.7410, 217.1807
364.9410, 239.8711
366.1410, 468.4580
367.3410, 391.3359
368.5410, 520.3945
369.7410, 529.6953
370.9400, 582.4756
372.1400, 757.0859
373.3390, 708.4434
374.5380, 848.0820
375.7370, 1004.946
376.9360, 1090.258
378.1350, 1478.315
379.3330, 1498.486
380.5310, 1689.919
381.7300, 1970.382
382.9280, 2450.943
384.1260, 2873.653
385.3230, 3337.849
386.5210, 4203.303
387.7180, 5225.172
388.9160, 6248.061
390.1130, 7555.262
391.3100, 9112.126
392.5060, 10556.23
393.7030, 12350.07
394.9000, 14145.89
396.0960, 15811.69
397.2920, 17201.58
398.4880, 18213.70
399.6840, 18330.81
400.8800, 17009.99
402.0750, 15058.66
403.2710, 12974.33
404.4660, 10667.98
405.6610, 8618.596
406.8560, 7342.189
408.0510, 6057.132
409.2450, 5584.667
410.4400, 4955.176
411.6340, 4446.654
412.8280, 4578.103
414.0220, 4504.521
415.2160, 4309.908
416.4100, 4583.265
417.6030, 4565.228
418.7970, 4601.520
419.9900, 4672.781
421.1830, 4460.010
422.3760, 4575.205
423.5690, 4221.369
424.7610, 3929.499
425.9540, 3580.596
427.1460, 3214.659
428.3380, 2793.688
429.5300, 2528.834
430.7220, 2072.645
431.9140, 2024.571
433.1050, 1921.463
434.2970, 1795.320
435.4880, 1562.142
436.6790, 1601.930
437.8700, 1627.681
439.0610, 1533.396
440.2510, 1324.079
441.4420, 1263.725
442.6320, 1214.335
443.8220, 1250.909
445.0120, 1091.448
446.2020, 1024.952
447.3910, 883.4199
448.5810, 835.8525
449.7700, 799.2500
450.9600, 643.6104
452.1490, 694.9346
453.3370, 644.2236
454.5260, 794.4766
455.7150, 588.6924
456.9030, 500.8721
458.0910, 381.0146
459.2800, 474.1211
460.4670, 289.1895
461.6550, 363.2207
462.8430, 203.2148
464.0300, 268.1621
465.2180, 369.0693
466.4050, 394.9395
467.5920, 331.7754
468.7790, 365.4180
469.9650, 277.5283
471.1520, 305.2490
472.3380, 289.9326
473.5250, 232.5771
474.7110, 284.1768
475.8970, 353.7363
477.0820, 139.2275
478.2680, 526.6914
479.4540, 364.1846
480.6390, 305.0273
481.8240, 162.0098
483.0090, 369.2900
484.1940, 482.4229
485.3780, 385.2568
486.5630, 312.1328
487.7470, 315.2656
488.9320, 444.3086
490.1160, 229.8955
491.3000, 296.4150
492.4830, 119.0342
493.6670, 272.5527
494.8500, 237.5742
496.0340, 190.2930
497.2170, 252.5811
498.4000, 159.4424
499.5820, 92.21289
500.7650, 152.9932
501.9480, 78.25586
503.1300, 107.3799
504.3120, 59.98535
505.4940, 80.45703
506.6760, 41.01660
507.8580, 152.6719
509.0390, 48.48145
510.2210, 84.38770
511.4020, 6.586914
512.5830, 81.32617
513.7640, 190.7129
514.9450, 235.0938
516.1250, 208.3906
517.3060, 12.57031
518.4860, 93.25293
519.6660, 77.80273
520.8460, 130.8096
522.0260, 18.21484
523.2060, 53.68359
524.3850, 181.5293
525.5650, 160.3389
526.7440, 236.1143
527.9230, 97.86035
529.1020, 365.5781
530.2810, 304.2871
531.4590, 228.9814
532.6380, 369.6621
533.8160, 248.3164
534.9940, 502.9395
536.1720, 507.5322
537.3500, 445.0977
538.5270, 372.6338
539.7050, 365.1660
540.8820, 503.6748
542.0590, 398.2227
543.2360, 493.7695
544.4130, 456.3057
545.5900, 812.8418
546.7660, 562.3877
547.9430, 795.9033
549.1190, 883.3926
550.2950, 853.8867
551.4710, 1141.349
552.6470, 1065.785
553.8220, 1114.191
554.9980, 1080.589
556.1730, 1405.982
557.3480, 1417.382
558.5230, 1596.752
559.6980, 1529.129
560.8730, 1568.512
562.0470, 1803.864
563.2220, 1781.252
564.3960, 1783.609
565.5700, 1892.937
566.7440, 1975.265
567.9170, 2214.566
569.0910, 2296.840
570.2640, 2402.086
571.4380, 2517.387
572.6110, 2552.518
573.7840, 2601.689
574.9570, 2634.864
576.1290, 2530.047
577.3020, 2399.204
578.4740, 2364.334
579.6460, 2112.435
580.8180, 1923.533
581.9900, 1850.604
583.1620, 1759.653
584.3330, 1509.679
585.5040, 1539.676
586.6760, 1480.643
587.8470, 1208.581
589.0180, 967.4902
590.1880, 1087.372
591.3590, 1100.228
592.5290, 923.0557
593.7000, 940.8545
594.8700, 865.6250
596.0400, 706.3672
597.2090, 776.0801
598.3790, 664.7656
599.5490, 707.4229
600.7180, 580.0508
601.8870, 492.4707
603.0560, 363.0508
604.2250, 478.5283
605.3940, 471.7275
606.5620, 489.2861
607.7300, 409.8164
608.8990, 256.2627
610.0670, 525.7559
611.2350, 365.8965
612.4020, 432.1318
613.5700, 513.2646
614.7370, 404.8262
615.9050, 404.8555
617.0720, 425.1455
618.2390, 329.8545
619.4060, 363.1279
620.5720, 372.4014
621.7390, 380.4619
622.9050, 342.1572
624.0710, 352.3740
625.2370, 337.6289
626.4030, 333.2109
627.5690, 339.5742
628.7340, 317.9570
629.9000, 363.3320
631.0650, 354.3701
632.2300, 384.0684
633.3950, 340.2871
634.5600, 326.6826
635.7240, 254.8984
636.8890, 416.8564
638.0530, 326.0752
639.2170, 379.7129
640.3810, 544.3369
641.5450, 520.8252
642.7080, 427.5801
643.8720, 513.3535
645.0350, 562.4619
646.1980, 371.0107
647.3610, 710.1191
648.5240, 602.4658
649.6870, 524.9727
650.8490, 662.2139
652.0120, 613.6826
653.1740, 687.1006
654.3360, 703.6475
655.4980, 648.4834
656.6600, 717.6855
657.8210, 746.1035
658.9830, 866.7930
660.1440, 902.9053
661.3050, 1113.689
662.4660, 1220.746
663.6270, 1573.194
664.7870, 1850.599
665.9480, 2181.402
667.1080, 2515.759
668.2680, 2765.896
669.4280, 3529.190
670.5880, 4040.752
671.7480, 5095.195
672.9070, 6184.108
674.0670, 7656.178
675.2260, 9521.203
676.3850, 12402.31
677.5440, 15759.39
678.7030, 19801.05
679.8610, 24552.17
681.0200, 29619.19
682.1780, 34314.86
683.3360, 39270.23
684.4940, 43317.11
685.6520, 44819.89
686.8090, 44065.53
687.9670, 40033.05
689.1240, 34307.46
690.2810, 27981.10
691.4380, 22443.12
692.5950, 17838.92
693.7520, 14307.23
694.9080, 11817.45
696.0650, 9630.172
697.2210, 8124.727
698.3770, 6811.435
699.5330, 6298.496
700.6880, 5211.136
701.8440, 4804.109
702.9990, 4253.566
704.1550, 3868.061
705.3100, 3501.834
706.4650, 3227.865
707.6190, 2938.604
708.7740, 2700.917
709.9290, 2494.231
711.0830, 2344.475
712.2370, 2191.591
713.3910, 2024.168
714.5450, 2022.582
715.6980, 2055.167
716.8520, 1893.135
718.0050, 1754.010
719.1580, 1684.968
720.3110, 1554.909
721.4640, 1465.665
722.6170, 1513.413
723.7700, 1501.280
724.9220, 1399.121
726.0740, 1400.937
727.2260, 1388.727
728.3780, 1406.491
729.5300, 1379.330
730.6810, 1294.742
731.8330, 1354.433
732.9840, 1208.094
734.1350, 1232.732
735.2860, 1115.346
736.4370, 1042.165
737.5880, 840.7266
738.7380, 962.2656
739.8880, 1049.777
741.0390, 868.8555
742.1890, 924.4727
743.3380, 916.9160
744.4880, 1092.781
745.6380, 973.1758
746.7870, 1002.109
747.9360, 1151.727
749.0850, 1043.043
750.2340, 1155.469
751.3830, 1172.734
752.5310, 1320.977
753.6800, 1268.236
754.8280, 1282.432
755.9760, 1146.602
757.1240, 1330.758
758.2720, 1371.889
759.4190, 1190.992
760.5670, 1216.074
761.7140, 1236.133
762.8610, 1139.168
764.0080, 1145.178
765.1550, 996.1582
766.3020, 918.1152
767.4480, 652.0430
768.5950, 618.9434
769.7410, 507.5996
770.8870, 566.6680
772.0330, 374.4961
773.1780, 486.2949
774.3240, 441.9121
775.4690, 340.6602
776.6140, 421.3809
777.7590, 444.0801
778.9040, 269.7598
780.0490, 269.4141
781.1940, 354.0840
782.3380, 129.7344
783.4820, 236.3652
784.6260, 181.0117
785.7700, 116.6641
786.9140, 302.3477
788.0580, 248.0391
789.2010, 82.74805
790.3450, 263.4434
791.4880, 279.1543
792.6310, 178.9121
793.7730, 266.0430
794.9160, 196.5840
796.0590, 210.4375
797.2010, 142.3105
798.3430, 2.835938
799.4850, 63.97656
800.6270, 170.7793
801.7690, 145.5703
802.9100, 47.33789
804.0520, 40.07031
805.1930, 33.18945
806.3340, 42.51172
807.4750, 28.12500
808.6160, 31.62109
809.7560, 23.83789
810.8970, 62.42188
812.0370, 107.8887
813.1770, 83.25391
814.3170, 81.58984
815.4570, 12.52148
816.5960, 75.73047
817.7360, 51.04688
818.8750, 29.10156
820.0140, 24.94336
821.1530, 79.05664
822.2920, 105.7539
823.4310, 177.6250
824.5690, 44.04688
825.7070, 48.83984
826.8460, 156.7832
827.9840, 72.51758
829.1220, 104.2207
830.2590, 34.11133
831.3970, 49.50586
832.5340, 89.83398
833.6710, 138.4551
834.8080, 82.09570
835.9450, 88.78516
837.0820, 98.42969
838.2190, 192.3848
839.3550, 126.6523
840.4910, 109.6621
841.6270, 64.35156
842.7630, 36.54883
843.8990, 52.41797
845.0350, 111.2598
846.1700, 12.92383
847.3060, 120.8359
848.4410, 182.5742
849.5760, 83.71289
850.7100, 98.08789
851.8450, 36.43945
852.9800, 34.93945
854.1140, 60.41016
855.2480, 63.14648
856.3820, 131.2246
857.5160, 1.570313
858.6500, 18.87695
859.7830, 208.1543
860.9170, 361.4062
862.0500, 140.6387
863.1830, 119.8477
864.3160, 140.0371
865.4480, 14.20312
866.5810, 203.3418
867.7130, 123.4590
868.8460, 159.5566
869.9780, 161.6309
871.1100, 92.68750
872.2410, 29.72461
873.3730, 226.7422
874.5050, 205.7363
875.6360, 173.7129
876.7670, 7.328125
877.8980, 33.59375
879.0290, 184.4980
880.1590, 214.6152
881.2900, 127.1289
882.4200, 11.14648
883.5500, 26.45312
884.6800, 180.1973
885.8100, 16.83008
886.9400, 111.4473
888.0690, 173.0449
889.1990, 29.62695
890.3280, 59.19531
891.4570, 79.74414
892.5860, 79.21875
893.7140, 211.8008
894.8430, 244.3066
895.9710, 229.7988
897.1000, 446.2715
898.2280, 434.7344
899.3560, 468.1836
900.4830, 636.6152
901.6110, 527.0352
902.7380, 388.4414
903.8660, 589.8359
904.9930, 745.2168
906.1200, 497.5859
907.2460, 623.9395
908.3730, 748.2852
909.5000, 764.6191
910.6260, 655.9414
911.7520, 559.2500
912.8780, 516.5527
914.0040, 511.8438
915.1290, 526.1230
916.2550, 298.3945
917.3800, 463.6543
918.5050, 241.5762
919.6300, 470.8184
920.7550, 416.9473
921.8800, 330.8027
923.0040, 474.0156
924.1290, 206.2227
925.2530, 129.8926
926.3770, 281.0820
927.5010, 209.2598
928.6250, 220.3555
929.7480, 267.5176
930.8720, 69.67188
931.9950, 222.8184
933.1180, 25.74219
934.2410, 134.8359
935.3640, 38.34180
936.4860, 230.3770
937.6090, 102.3047
938.7310, 195.6309
939.8530, 2.871094
940.9750, 1.017578
942.0970, 114.4316
943.2180, 9.791016
944.3400, 81.79688
945.4610, 38.35938
946.5820, 0.9531250
947.7030, 9.730469
948.8240, 58.31055
949.9450, 97.11133
951.0650, 55.85742
952.1860, 12.34180
953.3060, 139.9043
954.4260, 33.20508
955.5460, 86.03711
956.6650, 161.4043
957.7850, 106.7402
958.9040, 28.94727
960.0230, 53.91992
961.1420, 11.09961
962.2610, 127.6172
963.3800, 77.90234
964.4990, 44.53906
965.6170, 45.46289
966.7350, 127.5195
967.8530, 148.5293
968.9710, 50.23633
970.0890, 164.7949
971.2070, 34.43359
972.3240, 69.99219
973.4410, 261.1992
974.5580, 189.9082
975.6750, 221.5625
976.7920, 281.9238
977.9090, 308.0156
979.0250, 322.4238
980.1410, 400.1641
981.2580, 431.6016
982.3740, 510.7539
983.4890, 555.6914
984.6050, 670.1562
985.7200, 753.7715
986.8360, 929.4922
987.9510, 1200.650
989.0660, 1313.359
990.1810, 1655.387
991.2950, 1837.416
992.4100, 2119.621
993.5240, 2562.824
994.6390, 2850.900
995.7530, 3194.992
996.8660, 3372.098
997.9800, 3600.223
999.0940, 3646.348
1000.207, 3657.977
1001.320, 3541.963
1002.433, 3486.178
1003.546, 3239.410
1004.659, 3049.664
1005.772, 2903.934
1006.884, 2625.992
1007.996, 2469.336
1009.108, 2309.695
1010.220, 1967.096
1011.332, 1856.930
1012.444, 1869.225
1013.555, 1604.697
1014.666, 1405.746
1015.777, 1221.270
1016.888, 1234.246
1017.999, 1089.340
1019.110, 1027.957
1020.220, 941.4688
1021.331, 822.1406
1022.441, 686.8359
1023.551, 705.5195
1024.661, 560.2656
1025.770, 674.0352
1026.880, 790.8320
1027.989, 632.6504
1029.098, 603.5078
1030.207, 471.3906
1031.316, 545.2988
1032.425, 370.2324
1033.533, 424.1934
1034.642, 428.1777
1035.750, 217.1914
1036.858, 517.2520
1037.966, 649.3535
1039.073, 534.4805
1040.181, 402.6543
1041.288, 739.8574
1042.396, 633.1406
1043.503, 597.4492
1044.610, 626.7969
1045.716, 810.1758
1046.823, 924.5840
1047.929, 1045.020
1049.036, 1141.484
1050.142, 1238.979
1051.248, 1475.504
1052.353, 1685.078
1053.459, 1825.693
1054.564, 2157.336
1055.670, 2431.025
1056.775, 2679.742
1057.880, 3052.504
1058.985, 3255.299
1060.089, 3806.125
1061.194, 4132.980
1062.298, 4391.867
1063.402, 4724.820
1064.506, 5037.809
1065.610, 5396.826
1066.713, 5514.879
1067.817, 5571.969
1068.920, 5816.098
1070.023, 5822.258
1071.126, 5766.449
1072.229, 5545.680
1073.332, 5561.912
1074.435, 5363.170
1075.537, 5017.785
1076.639, 4850.203
1077.741, 4570.822
1078.843, 4280.080
1079.945, 4047.584
1081.046, 3754.193
1082.148, 3463.838
1083.249, 3226.934
1084.350, 2980.814
1085.451, 2749.439
1086.551, 2547.271
1087.652, 2361.301
1088.752, 2151.393
1089.853, 1995.039
1090.953, 2009.584
1092.053, 1804.107
1093.152, 1688.258
1094.252, 1459.270
1095.351, 1553.496
1096.451, 1416.764
1097.550, 1425.080
1098.649, 1547.441
1099.748, 1360.865
1100.846, 1231.365
1101.945, 1207.857
1103.043, 1263.465
1104.141, 1212.361
1105.239, 1202.859
1106.337, 1203.676
1107.434, 1273.531
1108.532, 1213.434
1109.629, 1177.400
1110.726, 1323.410
1111.823, 1174.459
1112.920, 1075.545
1114.017, 960.6836
1115.113, 1320.857
1116.210, 1097.070
1117.306, 1154.352
1118.402, 1325.709
1119.498, 1256.102
1120.593, 1278.539
1121.689, 1220.012
1122.784, 1039.549
1123.879, 1121.121
1124.974, 1187.744
1126.069, 1381.406
1127.164, 1296.129
1128.259, 1203.863
1129.353, 1339.635
1130.447, 1094.316
1131.541, 1281.195
1132.635, 1235.100
1133.729, 1318.021
1134.822, 1117.980
1135.916, 1331.080
1137.009, 1242.111
1138.102, 1266.811
1139.195, 1159.969
1140.288, 1325.113
1141.380, 1332.139
1142.473, 1591.975
1143.565, 1247.965
1144.657, 1353.301
1145.749, 1278.283
1146.841, 1450.732
1147.932, 1191.213
1149.024, 986.7383
1150.115, 1075.953
1151.206, 860.9043
1152.297, 1024.809
1153.388, 803.5156
1154.479, 836.7051
1155.569, 1090.482
1156.659, 729.3242
1157.750, 737.2090
1158.839, 580.1465
1159.929, 793.4297
1161.019, 517.4668
1162.108, 579.5391
1163.198, 545.6426
1164.287, 436.7754
1165.376, 656.9434
1166.465, 552.1406
1167.553, 532.4258
1168.642, 730.0488
1169.730, 739.3594
1170.818, 837.8516
1171.906, 937.2637
1172.994, 780.5312
1174.082, 927.9922
1175.170, 1035.883
1176.257, 890.4023
1177.344, 714.9746
1178.431, 1126.576
1179.518, 864.2070
1180.605, 935.8613
1181.691, 1334.547
1182.778, 1136.426
1183.864, 1421.873
1184.950, 1163.639
1186.036, 972.1191
1187.122, 1299.938
1188.207, 1306.316
1189.292, 1277.182
1190.378, 1231.074
1191.463, 1484.986
1192.548, 1387.926
1193.632, 1217.309
1194.717, 1451.293
1195.801, 1833.303
1196.886, 2540.334
1197.970, 2438.387
1199.054, 1469.461
1200.137, 1385.562
1201.221, 2116.680
1202.305, 1527.369
1203.388, 2169.980
1204.471, 1337.166
1205.554, 1564.371
1206.637, 1328.619
1207.719, 1353.885
1208.802, 1384.176
1209.884, 1534.492
1210.966, 1473.828
1212.048, 1519.184
1213.130, 1558.557
1214.212, 1665.965
1215.293, 1572.957
1216.374, 1541.402
1217.456, 1708.863
1218.536, 1780.348
1219.617, 1698.859
1220.698, 1753.422
1221.778, 1803.926
1222.859, 1889.537
1223.939, 1846.223
1225.019, 1820.807
1226.099, 1679.465
1227.178, 1684.139
1228.258, 1432.949
1229.337, 1552.660
1230.417, 1325.387
1231.496, 1441.129
1232.574, 1171.887
1233.653, 1287.682
1234.732, 1047.467
1235.810, 982.4590
1236.888, 831.2695
1237.966, 840.0977
1239.044, 742.7773
1240.122, 738.1680
1241.199, 617.0176
1242.277, 683.1484
1243.354, 622.0176
1244.431, 532.5352
1245.508, 384.7891
1246.585, 357.6797
1247.661, 299.5820
1248.738, 242.6094
1249.814, 308.5195
1250.890, 248.4395
1251.966, 291.5000
1253.042, 12.73438
1254.117, 127.8438
1255.193, 63.78320
1256.268, 0.7304690
1257.343, 208.6758
1258.418, 74.62695
1259.493, 122.4180
1260.567, 0.5058590
1261.642, 1.589844
1262.716, 102.1387
1263.790, 95.04688
1264.864, 4.662109
1265.938, 27.63477
1267.011, 23.44141
1268.085, 154.8906
1269.158, 38.96289
1270.231, 92.64648
1271.304, 45.69531
1272.377, 23.46094
1273.450, 0.9902340
1274.522, 44.11719
1275.594, 154.4180
1276.666, 102.1914
1277.738, 87.11914
1278.810, 135.1895
1279.882, 19.92383
1280.953, 20.23242
1282.025, 120.7754
1283.096, 10.51562
1284.167, 23.26953
1285.238, 63.29297
1286.308, 112.6426
1287.379, 10.42969
1288.449, 44.53125
1289.519, 95.40430
1290.589, 54.66406
1291.659, 93.26367
1292.729, 260.8555
1293.798, 68.72266
1294.868, 140.6289
1295.937, 82.05273
1297.006, 35.49219
1298.075, 72.21484
1299.143, 62.08594
1300.212, 17.35547
1301.280, 182.8242
1302.348, 97.82422
1303.416, 28.54688
1304.484, 32.93164
1305.552, 104.0801
1306.620, 66.26758
1307.687, 167.8867
1308.754, 54.33398
1309.821, 42.93945
1310.888, 48.06445
1311.955, 7.833984
1313.021, 55.28320
1314.088, 21.61328
1315.154, 236.6582
1316.220, 17.28906
1317.286, 498.1738
1318.352, 336.8223
1319.417, 1114.711
1320.483, 380.6797
1321.548, 106.3770
1322.613, 123.4863
1323.678, 261.3438
1324.743, 152.1914
1325.807, 79.03125
1326.872, 212.8652
1327.936, 145.6875
1329.000, 186.4766
1330.064, 174.0234
1331.128, 117.4531
1332.191, 160.2129
1333.255, 102.9551
1334.318, 202.6973
1335.381, 56.58398
1336.444, 105.8047
1337.507, 99.46680
1338.569, 236.1172
1339.632, 126.7539
1340.694, 173.3770
1341.756, 211.9922
1342.818, 22.58789
1343.880, 198.1543
1344.941, 126.7070
1346.003, 133.2402
1347.064, 200.7617
1348.125, 129.6914
1349.186, 21.18164
1350.247, 187.6504
1351.308, 151.0977
1352.368, 315.5293
1353.428, 230.9453
1354.489, 169.4355
1355.549, 114.0020
1356.608, 261.4141
1357.668, 232.7520
1358.727, 348.0703
1359.787, 298.7383
1360.846, 150.1113
1361.905, 212.3477
1362.964, 113.6133
1364.022, 178.3887
1365.081, 33.50977
1366.139, 120.5859
1367.197, 122.5859
1368.255, 257.5176
1369.313, 110.3691
1370.371, 285.1934
1371.428, 176.9961
1372.486, 339.7637
1373.543, 275.7559
1374.600, 292.4199
1375.657, 159.0254
1376.713, 214.6055
1377.770, 284.1113
1378.826, 160.5918
1379.882, 123.5039
1380.938, 156.1777
1381.994, 221.8301
1383.050, 366.2012
1384.106, 709.5391
1385.161, 560.8594
1386.216, 607.1582
1387.271, 357.5566
1388.326, 162.7695
1389.381, 100.9746
1390.435, 214.6367
1391.490, 128.8008
1392.544, 128.2461
1393.598, 269.3457
1394.652, 105.7910
1395.705, 353.7812
1396.759, 30.79688
1397.812, 179.9707
1398.866, 117.4043
1399.919, 96.67383
1400.972, 73.51758
1402.024, 47.71875
1403.077, 217.5078
1404.129, 179.2598
1405.181, 18.97461
1406.233, 12.99219
1407.285, 315.8633
1408.337, 59.65039
1409.389, 73.48828
1410.440, 188.6016
1411.491, 73.61719
1412.542, 47.80469
1413.593, 21.79492
1414.644, 129.5410
1415.695, 73.46484
1416.745, 100.7793
1417.795, 367.9941
1418.845, 251.1855
1419.895, 159.3516
1420.945, 149.4961
1421.995, 97.05273
1423.044, 6.722656
1424.093, 170.9551
1425.142, 8.890625
1426.191, 290.9277
1427.240, 134.8379
1428.289, 18.10352
1429.337, 141.7617
1430.385, 168.2012
1431.433, 43.61523
1432.481, 144.1543
1433.529, 263.9043
1434.577, 169.7656
1435.624, 130.5586
1436.672, 83.03125
1437.719, 202.3008
1438.766, 228.9883
1439.812, 233.3145
1440.859, 172.0176
1441.905, 261.2012
1442.952, 271.7988
1443.998, 280.1230
1445.044, 340.4219
1446.090, 341.0039
1447.135, 232.7812
1448.181, 314.6816
1449.226, 236.9727
1450.271, 362.2266
1451.316, 244.4473
1452.361, 330.6309
1453.405, 265.7793
1454.450, 510.5176
1455.494, 583.5312
1456.538, 123.5039
1457.582, 251.4414
1458.626, 553.6152
1459.670, 227.4590
1460.713, 272.2617
1461.757, 89.85938
1462.800, 607.5605
1463.843, 406.2188
1464.886, 526.6953
1465.928, 472.2578
1466.971, 388.7480
1468.013, 427.9863
1469.055, 302.9707
1470.097, 438.8418
1471.139, 400.8164
1472.181, 412.0723
1473.222, 143.2969
1474.263, 332.3262
1475.305, 576.4746
1476.346, 301.0039
1477.386, 278.8301
1478.427, 276.8457
1479.468, 228.8262
1480.508, 207.5781
1481.548, 71.66602
1482.588, 316.5547
1483.628, 437.5273
1484.668, 160.8145
1485.707, 227.9004
1486.747, 558.2031
1487.786, 212.4355
1488.825, 131.5781
1489.864, 459.4199
1490.902, 249.4590
1491.941, 363.8203
1492.979, 449.4141
1494.017, 253.6758
1495.055, 347.6484
1496.093, 437.1602
1497.131, 254.2832
1498.168, 147.9961
1499.206, 321.5605
1500.243, 254.1074
1501.280, 388.8984
1502.317, 399.4355
1503.354, 346.5117
1504.390, 83.74219
1505.426, 135.0234
1506.463, 134.0566
1507.499, 471.4766
1508.535, 191.8711
1509.570, 419.2520
1510.606, 267.7090
1511.641, 424.0566
1512.676, 497.2930
1513.711, 399.5332
1514.746, 83.72070
1515.781, 209.7305
1516.816, 96.04297
1517.850, 405.8555
1518.884, 331.5508
1519.918, 329.1250
1520.952, 252.6309
1521.986, 186.0195
1523.019, 170.6035
1524.053, 174.5410
1525.086, 193.6953
1526.119, 270.3457
1527.152, 298.0762
1528.185, 399.5078
1529.217, 485.6250
1530.250, 381.0059
1531.282, 427.4746
1532.314, 286.3320
1533.346, 119.6074
1534.377, 177.8301
1535.409, 118.3379
1536.440, 325.0801
1537.472, 188.1152
1538.503, 295.4648
1539.534, 356.4219
1540.564, 356.2422
1541.595, 384.0762
1542.625, 502.8633
1543.656, 192.5117
1544.686, 189.2773
1545.716, 85.91992
1546.745, 146.3555
1547.775, 236.0625
1548.804, 49.23242
1549.834, 373.7520
1550.863, 369.9707
1551.892, 296.4004
1552.920, 571.6992
1553.949, 341.1484
1554.977, 123.6641
1556.006, 572.4160
1557.034, 400.2539
1558.062, 191.1914
1559.089, 200.7012
1560.117, 242.5547
1561.144, 498.8984
1562.172, 271.2969
1563.199, 272.7246
1564.226, 9.945313
1565.252, 264.0391
1566.279, 204.7305
1567.305, 135.2148
1568.332, 1.269531
1569.358, 167.7871
1570.384, 0.0000000E+00
##END=



