##NAMES=Bikitaite
##RRUFFID=R050160
##IDEAL CHEMISTRY=LiAlSi_2_O_6_&#183;H_2_O
##LOCALITY=Foote mine, Kings Mountain, Cleveland County, North Carolina, USA
##OWNER=RRUFF
##SOURCE=Jim McGlasson
##DESCRIPTION=Colorless prismatic crystals
##STATUS=The identification of this mineral has been confirmed by X-ray diffraction and chemical analysis
##URL=rruff.info/R050160
##MEASURED CHEMISTRY=Li_1.00_Si_2.00_O_6_Â·1.25H_2_O ; Li not measured but estimated by stoichiometry
##PIN_ID=M00075
##ORIENTATION=Laser parallel to (0 1 1). Fiducial mark perpendicular to laser is parallel to a [1 0 0]
93.48000, 0.0000000E+00
94.71400, 31.57422
95.94800, 507.7539
97.18200, 1354.457
98.41600, 2860.148
99.64900, 4543.449
100.8830, 6261.137
102.1160, 8074.695
103.3490, 9832.559
104.5820, 11809.44
105.8150, 13201.06
107.0470, 15057.45
108.2800, 16404.58
109.5120, 18032.43
110.7440, 18517.57
111.9760, 18786.60
113.2080, 19125.47
114.4400, 19570.12
115.6710, 19667.13
116.9030, 18889.38
118.1340, 17441.95
119.3650, 15846.12
120.5960, 13948.30
121.8270, 12158.37
123.0580, 9931.004
124.2880, 7370.871
125.5190, 4785.709
126.7490, 2934.463
127.9790, 1393.152
129.2090, 668.4453
130.4390, 104.8906
131.6680, 102.6113
132.8980, 2.253906
134.1270, 53.44141
135.3560, 534.4961
136.5850, 1337.072
137.8140, 2731.588
139.0430, 4001.918
140.2710, 5174.277
141.5000, 6189.855
142.7280, 5796.168
143.9560, 5767.129
145.1840, 5525.553
146.4120, 5434.688
147.6390, 5433.826
148.8670, 5521.973
150.0940, 5901.316
151.3210, 6211.344
152.5490, 6683.939
153.7750, 7098.869
155.0020, 7521.408
156.2290, 7733.051
157.4550, 7978.248
158.6810, 8232.207
159.9080, 8071.746
161.1340, 7919.379
162.3590, 7535.322
163.5850, 7002.180
164.8110, 6355.785
166.0360, 6067.332
167.2610, 5464.789
168.4860, 5003.594
169.7110, 4351.965
170.9360, 3770.959
172.1610, 3227.582
173.3850, 2570.816
174.6100, 1747.615
175.8340, 1129.941
177.0580, 671.7402
178.2820, 100.0293
179.5050, 597.8691
180.7290, 968.7559
181.9520, 1030.617
183.1760, 957.7754
184.3990, 856.7070
185.6220, 723.3555
186.8450, 599.3535
188.0670, 436.1641
189.2900, 306.6426
190.5120, 12.12695
191.7340, 527.9883
192.9560, 816.0293
194.1780, 1541.994
195.4000, 2298.877
196.6220, 3035.676
197.8430, 3417.389
199.0640, 4011.582
200.2860, 4807.705
201.5070, 5740.102
202.7270, 6233.395
203.9480, 6212.574
205.1690, 5904.975
206.3890, 4916.043
207.6090, 4047.883
208.8290, 3364.877
210.0490, 2313.303
211.2690, 1923.762
212.4890, 1894.893
213.7080, 1886.811
214.9280, 2091.111
216.1470, 2357.166
217.3660, 2775.791
218.5850, 3129.391
219.8030, 3266.982
221.0220, 3403.564
222.2400, 3233.141
223.4590, 2622.709
224.6770, 2335.270
225.8950, 1935.816
227.1120, 1431.330
228.3300, 1161.828
229.5480, 643.3223
230.7650, 410.8164
231.9820, 280.3145
233.1990, 414.8125
234.4160, 269.2773
235.6330, 491.6191
236.8490, 717.7598
238.0660, 1030.711
239.2820, 1521.582
240.4980, 1946.225
241.7140, 2625.361
242.9300, 3034.900
244.1460, 3952.332
245.3610, 4714.994
246.5770, 5508.461
247.7920, 6158.406
249.0070, 6487.605
250.2220, 6897.619
251.4370, 7220.139
252.6510, 7159.203
253.8660, 6987.957
255.0800, 6734.828
256.2940, 6499.266
257.5080, 5910.752
258.7220, 5384.771
259.9360, 4758.309
261.1490, 3276.371
262.3630, 2314.814
263.5760, 1605.404
264.7890, 1142.033
266.0020, 634.7402
267.2150, 116.5723
268.4270, 103.4648
269.6400, 290.3789
270.8520, 367.1777
272.0640, 638.8340
273.2760, 694.3848
274.4880, 696.8105
275.7000, 606.0996
276.9120, 331.2031
278.1230, 183.0195
279.3340, 148.4062
280.5450, 283.3984
281.7560, 625.7617
282.9670, 1036.238
284.1780, 1400.787
285.3880, 1837.482
286.5980, 2439.676
287.8090, 3062.959
289.0190, 3328.320
290.2290, 3884.354
291.4380, 4113.238
292.6480, 4001.982
293.8570, 3867.580
295.0670, 3672.039
296.2760, 3183.363
297.4850, 2745.549
298.6930, 2397.584
299.9020, 2334.461
301.1110, 2246.205
302.3190, 1995.826
303.5270, 1946.322
304.7350, 1966.701
305.9430, 1935.961
307.1510, 2418.055
308.3580, 2258.871
309.5660, 2501.369
310.7730, 2482.578
311.9800, 2520.617
313.1870, 2305.562
314.3940, 2015.428
315.6010, 1806.203
316.8070, 1290.889
318.0130, 1056.473
319.2200, 835.9453
320.4260, 752.2969
321.6310, 514.0508
322.8370, 796.5996
324.0430, 711.7461
325.2480, 697.7070
326.4540, 1025.018
327.6590, 934.7812
328.8640, 721.4258
330.0680, 715.5508
331.2730, 596.8398
332.4780, 543.6406
333.6820, 862.7402
334.8860, 1194.240
336.0900, 1172.545
337.2940, 1503.539
338.4980, 1872.715
339.7010, 2106.395
340.9050, 2494.242
342.1080, 2863.170
343.3110, 2876.078
344.5140, 3292.971
345.7170, 3478.867
346.9200, 3498.734
348.1220, 3779.605
349.3240, 3709.451
350.5270, 3992.332
351.7290, 4056.174
352.9310, 4213.945
354.1320, 3882.668
355.3340, 4154.324
356.5350, 4291.797
357.7370, 4535.199
358.9380, 4759.658
360.1390, 5240.066
361.3400, 5690.863
362.5400, 6358.711
363.7410, 7170.754
364.9410, 8002.572
366.1410, 9248.539
367.3410, 10313.55
368.5410, 11838.63
369.7410, 13683.80
370.9400, 15743.58
372.1400, 18267.41
373.3390, 20760.24
374.5380, 23537.21
375.7370, 25928.06
376.9360, 28930.28
378.1350, 31902.74
379.3330, 34367.36
380.5310, 36124.40
381.7300, 37984.03
382.9280, 39391.07
384.1260, 39972.24
385.3230, 39762.83
386.5210, 39679.32
387.7180, 39294.66
388.9160, 38598.87
390.1130, 38512.94
391.3100, 37962.85
392.5060, 37695.60
393.7030, 37400.20
394.9000, 37003.66
396.0960, 36027.94
397.2920, 34284.07
398.4880, 32249.04
399.6840, 29407.86
400.8800, 26209.53
402.0750, 23034.04
403.2710, 20432.41
404.4660, 18177.62
405.6610, 16496.70
406.8560, 15355.63
408.0510, 14564.30
409.2450, 13853.84
410.4400, 13449.82
411.6340, 13189.74
412.8280, 13165.64
414.0220, 13291.50
415.2160, 13511.34
416.4100, 14108.95
417.6030, 14260.90
418.7970, 14534.57
419.9900, 15045.07
421.1830, 15217.45
422.3760, 15497.23
423.5690, 15579.90
424.7610, 15240.95
425.9540, 14693.10
427.1460, 14118.06
428.3380, 13081.76
429.5300, 12187.40
430.7220, 10969.61
431.9140, 9541.521
433.1050, 8745.500
434.2970, 7999.285
435.4880, 7369.244
436.6790, 6694.740
437.8700, 6395.543
439.0610, 6037.551
440.2510, 6023.789
441.4420, 6300.945
442.6320, 6513.377
443.8220, 7089.320
445.0120, 7413.146
446.2020, 8088.480
447.3910, 8688.703
448.5810, 9329.080
449.7700, 9861.217
450.9600, 10108.99
452.1490, 10220.74
453.3370, 9580.494
454.5260, 9011.238
455.7150, 8134.973
456.9030, 7343.707
458.0910, 6681.346
459.2800, 6059.137
460.4670, 5699.627
461.6550, 5323.504
462.8430, 5271.012
464.0300, 5323.879
465.2180, 5346.824
466.4050, 5658.223
467.5920, 5932.311
468.7790, 7038.047
469.9650, 7602.322
471.1520, 8437.000
472.3380, 9271.148
473.5250, 10283.14
474.7110, 11470.70
475.8970, 13214.63
477.0820, 14617.24
478.2680, 16509.94
479.4540, 18319.69
480.6390, 20804.97
481.8240, 23102.09
483.0090, 26144.64
484.1940, 29055.07
485.3780, 32130.24
486.5630, 35129.48
487.7470, 38232.35
488.9320, 40335.86
490.1160, 42170.30
491.3000, 42284.16
492.4830, 41675.98
493.6670, 39975.49
494.8500, 37363.41
496.0340, 34664.43
497.2170, 31454.89
498.4000, 28473.04
499.5820, 26023.91
500.7650, 24398.48
501.9480, 22512.88
503.1300, 21395.88
504.3120, 20307.90
505.4940, 19581.14
506.6760, 18940.11
507.8580, 18140.81
509.0390, 17413.37
510.2210, 16234.14
511.4020, 15306.46
512.5830, 14140.44
513.7640, 13181.63
514.9450, 11909.60
516.1250, 10829.66
517.3060, 9803.398
518.4860, 8772.508
519.6660, 8023.879
520.8460, 7501.270
522.0260, 6670.305
523.2060, 6273.918
524.3850, 5516.451
525.5650, 5381.828
526.7440, 4899.207
527.9230, 4756.922
529.1020, 4427.082
530.2810, 4290.766
531.4590, 4254.074
532.6380, 4136.221
533.8160, 4023.363
534.9940, 3834.504
536.1720, 3775.881
537.3500, 3733.297
538.5270, 3573.910
539.7050, 3646.047
540.8820, 3460.178
542.0590, 3219.311
543.2360, 3020.445
544.4130, 2375.580
545.5900, 2054.717
546.7660, 1810.855
547.9430, 1503.994
549.1190, 1367.133
550.2950, 934.2852
551.4710, 835.4668
552.6470, 505.6914
553.8220, 450.0117
554.9980, 473.4902
556.1730, 469.1719
557.3480, 364.0781
558.5230, 144.2793
559.6980, 66.79297
560.8730, 7.619141
562.0470, 221.7402
563.2220, 18.07617
564.3960, 159.5879
565.5700, 177.1934
566.7440, 53.89062
567.9170, 51.36914
569.0910, 134.3848
570.2640, 52.16016
571.4380, 44.94727
572.6110, 157.2324
573.7840, 131.5488
574.9570, 118.6172
576.1290, 37.80664
577.3020, 5.003906
578.4740, 28.20508
579.6460, 85.58789
580.8180, 31.40234
581.9900, 50.21094
583.1620, 1.023438
584.3330, 101.8320
585.5040, 206.6523
586.6760, 137.4766
587.8470, 119.3027
589.0180, 111.1387
590.1880, 323.9785
591.3590, 170.8262
592.5290, 388.6719
593.7000, 216.5195
594.8700, 303.3711
596.0400, 402.2266
597.2090, 353.0820
598.3790, 406.9355
599.5490, 416.7871
600.7180, 326.6797
601.8870, 487.5840
603.0560, 302.5312
604.2250, 421.5000
605.3940, 403.4961
606.5620, 430.5215
607.7300, 251.6035
608.8990, 320.7070
610.0670, 262.8301
611.2350, 248.9609
612.4020, 23.88672
613.5700, 66.25391
614.7370, 5.382813
615.9050, 16.51172
617.0720, 80.62305
618.2390, 44.72266
619.4060, 88.20117
620.5720, 45.80469
621.7390, 103.2031
622.9050, 12.74609
624.0710, 221.2969
625.2370, 53.47461
626.4030, 110.7168
627.5690, 185.0312
628.7340, 7.480469
629.9000, 138.9785
631.0650, 32.58984
632.2300, 265.2617
633.3950, 113.1094
634.5600, 82.05664
635.7240, 194.0996
636.8890, 49.29102
638.0530, 205.5352
639.2170, 133.9434
640.3810, 253.4766
641.5450, 104.1719
642.7080, 189.9824
643.8720, 107.9531
645.0350, 204.0449
646.1980, 70.69141
647.3610, 28.61328
648.5240, 89.00000
649.6870, 153.5078
650.8490, 223.1641
652.0120, 40.01172
653.1740, 231.9551
654.3360, 178.0957
655.4980, 256.4082
656.6600, 53.06641
657.8210, 44.51758
658.9830, 109.2031
660.1440, 79.96680
661.3050, 60.08398
662.4660, 79.14258
663.6270, 11.14648
664.7870, 60.06445
665.9480, 107.9199
667.1080, 268.1543
668.2680, 447.9102
669.4280, 277.6250
670.5880, 369.2949
671.7480, 691.9199
672.9070, 606.5039
674.0670, 779.0430
675.2260, 965.5410
676.3850, 1186.998
677.5440, 1148.408
678.7030, 1314.352
679.8610, 1394.678
681.0200, 1650.957
682.1780, 1692.539
683.3360, 1682.521
684.4940, 1778.281
685.6520, 1628.385
686.8090, 1520.443
687.9670, 1600.457
689.1240, 1722.438
690.2810, 1706.316
691.4380, 1565.787
692.5950, 1498.951
693.7520, 1367.732
694.9080, 1424.467
696.0650, 1281.178
697.2210, 1449.811
698.3770, 1597.803
699.5330, 1434.779
700.6880, 1409.307
701.8440, 1532.725
702.9990, 1593.875
704.1550, 1679.174
705.3100, 1631.156
706.4650, 1908.318
707.6190, 1866.332
708.7740, 1645.896
709.9290, 2054.240
711.0830, 1812.303
712.2370, 1982.484
713.3910, 1790.834
714.5450, 1651.086
715.6980, 1659.924
716.8520, 1486.980
718.0050, 1505.025
719.1580, 1131.590
720.3110, 1279.670
721.4640, 979.1230
722.6170, 1191.963
723.7700, 1009.977
724.9220, 937.2949
726.0740, 868.4824
727.2260, 1085.234
728.3780, 1042.393
729.5300, 988.5801
730.6810, 954.5469
731.8330, 952.7520
732.9840, 1024.340
734.1350, 889.7988
735.2860, 929.3906
736.4370, 729.9121
737.5880, 807.6992
738.7380, 726.8730
739.8880, 801.5547
741.0390, 822.1445
742.1890, 724.6758
743.3380, 678.9902
744.4880, 685.2344
745.6380, 826.6387
746.7870, 733.8574
747.9360, 1093.303
749.0850, 1265.312
750.2340, 1273.727
751.3830, 1574.768
752.5310, 1745.730
753.6800, 2132.135
754.8280, 2389.617
755.9760, 2759.678
757.1240, 2933.840
758.2720, 3478.664
759.4190, 3860.174
760.5670, 4338.562
761.7140, 4542.586
762.8610, 4851.340
764.0080, 5042.557
765.1550, 4979.520
766.3020, 5093.926
767.4480, 4718.801
768.5950, 4593.529
769.7410, 4440.785
770.8870, 3787.113
772.0330, 3901.621
773.1780, 3369.662
774.3240, 3115.566
775.4690, 3000.516
776.6140, 2704.779
777.7590, 2547.078
778.9040, 2440.137
780.0490, 2212.404
781.1940, 2173.043
782.3380, 1999.590
783.4820, 1747.980
784.6260, 1679.551
785.7700, 1704.270
786.9140, 1240.082
788.0580, 1137.625
789.2010, 1191.574
790.3450, 1202.807
791.4880, 884.7793
792.6310, 881.9277
793.7730, 821.9629
794.9160, 854.2832
796.0590, 661.2305
797.2010, 619.9277
798.3430, 564.5957
799.4850, 599.6309
800.6270, 434.0723
801.7690, 499.5625
802.9100, 336.1719
804.0520, 196.7344
805.1930, 343.9062
806.3340, 387.5801
807.4750, 425.6758
808.6160, 346.0977
809.7560, 441.6270
810.8970, 345.1113
812.0370, 410.5449
813.1770, 388.9336
814.3170, 373.2754
815.4570, 147.5723
816.5960, 365.8164
817.7360, 345.0137
818.8750, 247.1660
820.0140, 419.2695
821.1530, 129.3301
822.2920, 331.3398
823.4310, 361.3047
824.5690, 391.2227
825.7070, 265.0977
826.8460, 62.92578
827.9840, 122.6934
829.1220, 182.4102
830.2590, 348.0820
831.3970, 303.3789
832.5340, 250.2910
833.6710, 271.8320
834.8080, 154.3301
835.9450, 142.7852
837.0820, 74.18945
838.2190, 329.5430
839.3550, 249.8535
840.4910, 284.1250
841.6270, 12.35547
842.7630, 219.5098
843.8990, 349.6250
845.0350, 111.7051
846.1700, 114.7422
847.3060, 33.26172
848.4410, 174.6387
849.5760, 102.4824
850.7100, 143.2676
851.8450, 179.9902
852.9800, 370.6797
854.1140, 123.3320
855.2480, 6.046875
856.3820, 323.4980
857.5160, 116.0098
858.6500, 175.4824
859.7830, 10.92188
860.9170, 163.3008
862.0500, 176.6406
863.1830, 29.94727
864.3160, 116.2070
865.4480, 41.42773
866.5810, 156.6016
867.7130, 79.74609
868.8460, 50.85156
869.9780, 20.91602
871.1100, 264.9355
872.2410, 280.9199
873.3730, 86.87695
874.5050, 98.20312
875.6360, 74.61328
876.7670, 77.60547
877.8980, 72.08398
879.0290, 23.74414
880.1590, 101.3613
881.2900, 100.0469
882.4200, 68.44141
883.5500, 7.898438
884.6800, 78.31641
885.8100, 46.29492
886.9400, 151.0254
888.0690, 102.3301
889.1990, 4.388672
890.3280, 169.8574
891.4570, 2.080078
892.5860, 14.26953
893.7140, 47.43359
894.8430, 50.40625
895.9710, 110.7051
897.1000, 161.6660
898.2280, 11.73828
899.3560, 143.2070
900.4830, 50.84570
901.6110, 92.07617
902.7380, 41.03125
903.8660, 165.9746
904.9930, 146.3242
906.1200, 27.08984
907.2460, 138.9160
908.3730, 141.9414
909.5000, 188.9785
910.6260, 90.94141
911.7520, 175.0996
912.8780, 220.1895
914.0040, 100.6895
915.1290, 163.4395
916.2550, 319.5977
917.3800, 292.8047
918.5050, 7.039063
919.6300, 13.33008
920.7550, 46.61133
921.8800, 94.90625
923.0040, 109.2266
924.1290, 203.5977
925.2530, 124.0312
926.3770, 148.4863
927.5010, 270.0098
928.6250, 279.5918
929.7480, 194.2500
930.8720, 309.9102
931.9950, 105.5957
933.1180, 299.3242
934.2410, 391.0508
935.3640, 347.7812
936.4860, 261.5078
937.6090, 389.2520
938.7310, 286.9980
939.8530, 319.3125
940.9750, 353.0547
942.0970, 532.7910
943.2180, 723.5234
944.3400, 689.2539
945.4610, 815.9766
946.5820, 935.6953
947.7030, 1298.410
948.8240, 1725.121
949.9450, 2106.832
951.0650, 2504.963
952.1860, 3225.676
953.3060, 3832.385
954.4260, 5268.961
955.5460, 6379.664
956.6650, 8216.760
957.7850, 9641.465
958.9040, 11381.18
960.0230, 12797.88
961.1420, 14390.58
962.2610, 14758.33
963.3800, 15574.45
964.4990, 15896.82
965.6170, 16182.53
966.7350, 15859.26
967.8530, 15420.96
968.9710, 13893.70
970.0890, 11757.02
971.2070, 9639.305
972.3240, 7578.717
973.4410, 5984.461
974.5580, 4783.227
975.6750, 3850.998
976.7920, 3085.031
977.9090, 2589.740
979.0250, 1992.529
980.1410, 1815.818
981.2580, 1507.141
982.3740, 1462.643
983.4890, 1494.260
984.6050, 1538.557
985.7200, 1461.084
986.8360, 1920.791
987.9510, 2146.662
989.0660, 2716.170
990.1810, 3225.879
991.2950, 3915.781
992.4100, 4264.336
993.5240, 4429.188
994.6390, 4546.285
995.7530, 3909.131
996.8660, 3553.055
997.9800, 2961.281
999.0940, 2353.027
1000.207, 1820.818
1001.320, 1583.779
1002.433, 1343.443
1003.546, 1028.678
1004.659, 916.2148
1005.772, 837.1113
1006.884, 788.2520
1007.996, 699.1191
1009.108, 880.5879
1010.220, 866.5254
1011.332, 674.5293
1012.444, 909.5410
1013.555, 1209.717
1014.666, 1000.912
1015.777, 957.8945
1016.888, 1027.012
1017.999, 905.8555
1019.110, 719.0840
1020.220, 817.8535
1021.331, 520.3516
1022.441, 556.7773
1023.551, 444.3809
1024.661, 193.9375
1025.770, 167.1133
1026.880, 79.96680
1027.989, 317.3320
1029.098, 52.29883
1030.207, 209.3613
1031.316, 136.9375
1032.425, 258.8730
1033.533, 111.5879
1034.642, 374.4414
1035.750, 341.2031
1036.858, 364.8301
1037.966, 480.6406
1039.073, 493.4805
1040.181, 572.2793
1041.288, 841.1836
1042.396, 957.1113
1043.503, 1107.059
1044.610, 1302.471
1045.716, 1485.676
1046.823, 1802.482
1047.929, 1967.609
1049.036, 2204.670
1050.142, 2562.754
1051.248, 2488.857
1052.353, 2843.877
1053.459, 2970.959
1054.564, 2916.129
1055.670, 2761.324
1056.775, 2884.543
1057.880, 2625.783
1058.985, 2612.049
1060.089, 2554.334
1061.194, 2344.641
1062.298, 1840.967
1063.402, 1681.312
1064.506, 1551.682
1065.610, 1376.068
1066.713, 1113.477
1067.817, 1004.906
1068.920, 865.3574
1070.023, 791.8281
1071.126, 847.3184
1072.229, 753.6484
1073.332, 807.3613
1074.435, 670.9180
1075.537, 559.4902
1076.639, 447.0879
1077.741, 742.7070
1078.843, 578.3457
1079.945, 631.0078
1081.046, 647.6895
1082.148, 559.3926
1083.249, 550.1152
1084.350, 687.3594
1085.451, 579.1289
1086.551, 632.0234
1087.652, 761.8418
1088.752, 751.6797
1089.853, 813.5566
1090.953, 774.5039
1092.053, 742.4238
1093.152, 802.3652
1094.252, 798.3320
1095.351, 930.3301
1096.451, 1130.359
1097.550, 1132.164
1098.649, 1469.443
1099.748, 1456.535
1100.846, 1713.990
1101.945, 1735.129
1103.043, 1720.293
1104.141, 1797.480
1105.239, 1857.699
1106.337, 1825.975
1107.434, 1835.254
1108.532, 1637.553
1109.629, 1664.125
1110.726, 1487.812
1111.823, 1314.230
1112.920, 1644.365
1114.017, 1496.812
1115.113, 1246.371
1116.210, 1693.891
1117.306, 1686.500
1118.402, 2095.637
1119.498, 2229.262
1120.593, 2223.910
1121.689, 2958.578
1122.784, 2955.285
1123.879, 2950.316
1124.974, 3595.715
1126.069, 3812.484
1127.164, 4135.289
1128.259, 4556.129
1129.353, 4948.988
1130.447, 5446.758
1131.541, 5794.838
1132.635, 6370.785
1133.729, 6710.746
1134.822, 7225.732
1135.916, 7759.740
1137.009, 8489.775
1138.102, 8995.250
1139.195, 9473.564
1140.288, 9516.207
1141.380, 9544.061
1142.473, 9057.602
1143.565, 8511.812
1144.657, 7722.156
1145.749, 6902.404
1146.841, 6091.668
1147.932, 5367.988
1149.024, 4661.311
1150.115, 4087.670
1151.206, 3402.049
1152.297, 3171.463
1153.388, 2934.891
1154.479, 2622.334
1155.569, 2206.807
1156.659, 2040.291
1157.750, 1873.930
1158.839, 1693.176
1159.929, 1792.896
1161.019, 1442.902
1162.108, 1535.557
1163.198, 1318.273
1164.287, 1185.027
1165.376, 1291.797
1166.465, 1072.021
1167.553, 1065.062
1168.642, 1245.889
1169.730, 1018.029
1170.818, 1100.381
1171.906, 929.2852
1172.994, 1176.174
1174.082, 881.0762
1175.170, 968.9902
1176.257, 851.9414
1177.344, 817.9004
1178.431, 572.8730
1179.518, 611.8809
1180.605, 509.8984
1181.691, 425.9277
1182.778, 285.9648
1183.864, 251.0137
1184.950, 262.4746
1186.036, 157.0742
1187.122, 371.4785
1188.207, 341.5664
1189.292, 401.6621
1190.378, 437.7676
1191.463, 213.8770
1192.548, 218.0000
1193.632, 317.1309
1194.717, 318.2656
1195.801, 106.4141
1196.886, 183.5645
1197.970, 39.72461
1199.054, 125.8906
1200.137, 287.0645
1201.221, 299.2461
1202.305, 112.4336
1203.388, 47.62891
1204.471, 139.8320
1205.554, 199.0625
1206.637, 82.67969
1207.719, 120.0039
1208.802, 370.2363
1209.884, 3.501953
1210.966, 302.7441
1212.048, 76.99219
1213.130, 67.29883
1214.212, 76.44336
1215.293, 87.79492
1216.374, 6.406250
1217.456, 49.84180
1218.536, 86.09180
1219.617, 154.7246
1220.698, 39.00586
1221.778, 26.26172
1222.859, 143.0586
1223.939, 295.0020
1225.019, 137.2754
1226.099, 70.95117
1227.178, 28.44336
1228.258, 61.15430
1229.337, 38.25977
1230.417, 14.33008
1231.496, 122.4141
1232.574, 70.45898
1233.653, 86.74023
1234.732, 204.4023
1235.810, 86.14453
1236.888, 18.49023
1237.966, 85.74023
1239.044, 8.005859
1240.122, 10.75977
1241.199, 0.7734380
1242.277, 19.55859
1243.354, 100.4043
1244.431, 44.36328
1245.508, 64.26758
1246.585, 23.52539
1247.661, 32.33203
1248.738, 166.8477
1249.814, 165.0273
1250.890, 75.20312
1251.966, 292.3750
1253.042, 59.12109
1254.117, 111.9805
1255.193, 194.2324
1256.268, 41.47461
1257.343, 70.21484
1258.418, 36.28711
1259.493, 94.64648
1260.567, 3.566406
1261.642, 103.9062
1262.716, 178.9023
1263.790, 173.6895
1264.864, 139.5918
1265.938, 78.17578
1267.011, 2.146484
1268.085, 140.7578
1269.158, 145.8887
1270.231, 98.10938
1271.304, 93.06250
1272.377, 138.2578
1273.450, 22.89844
1274.522, 181.5371
1275.594, 187.1641
1276.666, 74.29688
1277.738, 2.095703
1278.810, 109.6582
1279.882, 166.0156
1280.953, 159.9531
1282.025, 169.0820
1283.096, 193.3496
1284.167, 108.1621
1285.238, 96.09766
1286.308, 99.03320
1287.379, 80.65039
1288.449, 83.48242
1289.519, 157.2422
1290.589, 187.0059
1291.659, 329.7441
1292.729, 160.7969
1293.798, 200.6582
1294.868, 25.20312
1295.937, 7.322266
1297.006, 200.9766
1298.075, 7.357422
1299.143, 43.19141
1300.212, 101.1074
1301.280, 246.3906
1302.348, 240.5371
1303.416, 291.1992
1304.484, 267.2910
1305.552, 268.5098
1306.620, 322.2812
1307.687, 307.8477
1308.754, 396.0664
1309.821, 362.2188
1310.888, 344.5996
1311.955, 436.8906
1313.021, 368.3789
1314.088, 26.46094
1315.154, 55.51172
1316.220, 245.6094
1317.286, 205.6152
1318.352, 477.5996
1319.417, 327.5645
1320.483, 201.8887
1321.548, 421.8027
1322.613, 214.7656
1323.678, 427.6582
1324.743, 282.5352
1325.807, 190.4004
1326.872, 334.2539
1327.936, 264.0957
1329.000, 254.2578
1330.064, 202.0684
1331.128, 172.4062
1332.191, 324.6523
1333.255, 159.2461
1334.318, 69.99414
1335.381, 144.2090
1336.444, 342.9102
1337.507, 163.6406
1338.569, 308.2949
1339.632, 393.9375
1340.694, 162.5645
1341.756, 198.1719
1342.818, 339.3730
1343.880, 28.92188
1344.941, 278.5996
1346.003, 219.2207
1347.064, 4.314453
1348.125, 234.3711
1349.186, 432.2734
1350.247, 74.66992
1351.308, 66.04492
1352.368, 291.4004
1353.428, 38.71484
1354.489, 114.0059
1355.549, 313.9863
1356.608, 162.9492
1357.668, 168.0762
1358.727, 90.93359
1359.787, 68.09766
1360.846, 281.2637
1361.905, 113.2090
1362.964, 12.20508
1364.022, 110.8574
1365.081, 299.9141
1366.139, 278.2090
1367.197, 248.9902
1368.255, 138.2598
1369.313, 28.58398
1370.371, 203.5938
1371.428, 209.4316
1372.486, 108.1895
1373.543, 340.4355
1374.600, 346.2773
1375.657, 210.2402
1376.713, 295.2559
1377.770, 259.2422
1378.826, 357.8320
1379.882, 136.2383
1380.938, 295.2246
1381.994, 176.7324
1383.050, 170.3848
1384.106, 10.02734
1385.161, 273.5215
1386.216, 359.0547
1387.271, 158.6816
1388.326, 6.996094
1389.381, 224.6484
1390.435, 201.0859
1391.490, 259.4883
1392.544, 143.4258
1393.598, 233.7852
1394.652, 181.8047
1395.705, 246.8867
1396.759, 242.8516
1397.812, 273.4727
1398.866, 241.8984
1399.919, 274.5039
1400.972, 258.5352
1402.024, 202.6445
1403.077, 72.69922
1404.129, 228.7266
1405.181, 153.7305
1406.233, 46.70312
1407.285, 250.6445
1408.337, 222.5586
1409.389, 58.44531
1410.440, 131.4961
1411.491, 100.4922
1412.542, 98.32812
1413.593, 121.6523
1414.644, 63.21094
1415.695, 133.4180
1416.745, 131.0273
1417.795, 134.7578
1418.845, 22.69922
1419.895, 99.80859
1420.945, 173.2734
1421.995, 245.6406
1423.044, 389.8086
1424.093, 210.5859
1425.142, 35.59766
1426.191, 424.3828
1427.240, 38.61328
1428.289, 188.8398
1429.337, 213.0312
1430.385, 191.8984
1431.433, 261.4375
1432.481, 294.4180
1433.529, 340.7500
1434.577, 225.7969
1435.624, 353.1250
1436.672, 153.7930
1437.719, 171.4844
1438.766, 121.3125
1439.812, 219.7891
1440.859, 400.2266
1441.905, 198.1289
1442.952, 442.1484
1443.998, 414.0078
1445.044, 388.2031
1446.090, 123.5000
1447.135, 318.6445
1448.181, 200.1094
1449.226, 340.5391
1450.271, 325.9414
1451.316, 499.3125
1452.361, 297.6562
1453.405, 331.9414
1454.450, 140.6797
1455.494, 321.8711
1456.538, 400.0625
1457.582, 283.1680
1458.626, 9.609375
1459.670, 312.7148
1460.713, 103.9805
1461.757, 254.3672
1462.800, 211.5430
1463.843, 223.4570
1464.886, 460.1211
1465.928, 319.2109
1466.971, 497.0508
1468.013, 189.2891
1469.055, 256.4766
1470.097, 162.0859
1471.139, 183.9492
1472.181, 292.4023
1473.222, 19.66016
1474.263, 90.79297
1475.305, 429.2070
1476.346, 579.1484
1477.386, 241.3711
1478.427, 241.6445
1479.468, 329.9414
1480.508, 41.57031
1481.548, 43.62109
1482.588, 0.5703130
1483.628, 289.4102
1484.668, 485.7266
1485.707, 247.1953
1486.747, 57.67969
1487.786, 107.3750
1488.825, 426.5586
1489.864, 310.7930
1490.902, 160.1680
1491.941, 401.4531
1492.979, 85.58984
1494.017, 152.5938
1495.055, 300.7852
1496.093, 372.2227
1497.131, 236.9922
1498.168, 107.9414
1499.206, 191.0000
1500.243, 60.05469
1501.280, 145.8281
1502.317, 148.7109
1503.354, 44.57422
1504.390, 62.80469
1505.426, 74.75000
1506.463, 90.57422
1507.499, 34.30078
1508.535, 309.1719
1509.570, 311.3047
1510.606, 348.0430
1511.641, 335.8438
1512.676, 333.2969
1513.711, 175.5508
1514.746, 235.1680
1515.781, 279.6719
1516.816, 88.07812
1517.850, 283.4531
1518.884, 193.9141
1519.918, 270.0703
1520.952, 154.9375
1521.986, 452.1484
1523.019, 340.9258
1524.053, 471.2031
1525.086, 40.48047
1526.119, 267.5039
1527.152, 455.5703
1528.185, 294.3906
1529.217, 511.7422
1530.250, 512.9180
1531.282, 463.6172
1532.314, 275.1211
1533.346, 257.8359
1534.377, 163.5156
1535.409, 169.6250
1536.440, 199.1523
1537.472, 265.1992
1538.503, 271.0977
1539.534, 369.8047
1540.564, 261.3398
1541.595, 171.7148
1542.625, 290.0977
1543.656, 253.1641
1544.686, 351.5312
1545.716, 12.65234
1546.745, 230.6523
1547.775, 56.81641
1548.804, 255.3281
1549.834, 340.0586
1550.863, 397.7266
1551.892, 363.3008
1552.920, 213.4531
1553.949, 394.2578
1554.977, 271.4180
1556.006, 343.5586
1557.034, 157.9570
1558.062, 278.6523
1559.089, 130.3750
1560.117, 242.7031
1561.144, 7.132813
1562.172, 97.84766
1563.199, 246.4648
1564.226, 282.8477
1565.252, 425.0430
1566.279, 233.3164
1567.305, 199.4219
1568.332, 13.35547
1569.358, 0.6171880
1570.384, 0.0000000E+00
##END=



