##NAMES=Brazilianite
##RRUFFID=R050504
##IDEAL CHEMISTRY=NaAl_3_(PO_4_)_2_(OH)_4_
##LOCALITY=CÃ³rrego Frio, Minas Gerais, Brazil
##OWNER=RRUFF
##SOURCE=Marcus Origlieri
##DESCRIPTION=Yellowish green fragment
##STATUS=The identification of this mineral has been confirmed by X-ray diffraction and chemical analysis
##URL=rruff.info/R050504
##MEASURED CHEMISTRY=Na_1.00_Al_3.00_(P_1.00_O_4_)_2_(OH)_4_
##PIN_ID=L00677
##ORIENTATION=Laser parallel to -c* (0 0 -1). Fiducial mark perpendicular to laser is parallel to a [1 0 0]
72.47700, 0.0000000E+00
73.71400, 22.91577
74.95100, 165.8630
76.18700, 621.0874
77.42300, 1394.118
78.65900, 2545.000
79.89500, 4031.884
81.13100, 6026.987
82.36700, 8259.264
83.60200, 10409.80
84.83700, 12188.35
86.07200, 13521.56
87.30800, 14408.86
88.54200, 14706.76
89.77700, 13543.23
91.01200, 11500.62
92.24600, 9430.199
93.48000, 7464.924
94.71400, 6483.518
95.94800, 5947.570
97.18200, 6089.761
98.41600, 7031.798
99.64900, 8675.530
100.8830, 11968.25
102.1160, 15677.78
103.3490, 18039.57
104.5820, 18065.34
105.8150, 15099.64
107.0470, 11701.53
108.2800, 8857.861
109.5120, 6272.548
110.7440, 4294.481
111.9760, 3519.573
113.2080, 3329.796
114.4400, 3288.123
115.6710, 2882.519
116.9030, 2188.956
118.1340, 1455.372
119.3650, 820.7163
120.5960, 363.1938
121.8270, 132.3438
123.0580, 35.02393
124.2880, 54.19434
125.5190, 71.19775
126.7490, 134.1841
127.9790, 138.7734
129.2090, 207.9414
130.4390, 195.6978
131.6680, 266.0659
132.8980, 391.0381
134.1270, 310.6216
135.3560, 264.8252
136.5850, 150.6577
137.8140, 8.873535
139.0430, 199.7603
140.2710, 463.9961
141.5000, 779.5742
142.7280, 1297.489
143.9560, 1756.733
145.1840, 2192.303
146.4120, 2405.096
147.6390, 2355.904
148.8670, 2150.873
150.0940, 1861.063
151.3210, 1607.729
152.5490, 1364.168
153.7750, 1244.296
155.0020, 1413.819
156.2290, 1535.696
157.4550, 1848.062
158.6810, 2291.022
159.9080, 2951.492
161.1340, 4033.145
162.3590, 5580.912
163.5850, 7288.784
164.8110, 8563.744
166.0360, 9835.681
167.2610, 11450.90
168.4860, 13558.75
169.7110, 15740.66
170.9360, 17299.74
172.1610, 16917.96
173.3850, 14520.19
174.6100, 11242.35
175.8340, 8242.360
177.0580, 5626.092
178.2820, 3828.676
179.5050, 2483.386
180.7290, 1815.301
181.9520, 1215.418
183.1760, 982.7373
184.3990, 802.2563
185.6220, 679.2437
186.8450, 717.1460
188.0670, 750.2793
189.2900, 839.1167
190.5120, 1143.912
191.7340, 1224.223
192.9560, 1402.719
194.1780, 1789.380
195.4000, 2234.204
196.6220, 2497.190
197.8430, 2722.339
199.0640, 2865.648
200.2860, 3206.120
201.5070, 3445.661
202.7270, 3779.543
203.9480, 4057.495
205.1690, 4412.607
206.3890, 4759.876
207.6090, 4462.305
208.8290, 4186.891
210.0490, 3472.635
211.2690, 2922.536
212.4890, 2490.593
213.7080, 2281.805
214.9280, 2336.174
216.1470, 2644.697
217.3660, 2960.374
218.5850, 3123.205
219.8030, 3119.212
221.0220, 2831.131
222.2400, 2796.769
223.4590, 2634.841
224.6770, 2614.966
225.8950, 2958.897
227.1120, 3398.463
228.3300, 3836.638
229.5480, 3988.616
230.7650, 3848.176
231.9820, 3399.940
233.1990, 2748.762
234.4160, 2272.265
235.6330, 1702.327
236.8490, 1750.030
238.0660, 1778.987
239.2820, 1952.939
240.4980, 2367.507
241.7140, 2496.889
242.9300, 2463.882
244.1460, 2239.190
245.3610, 1729.071
246.5770, 1319.354
247.7920, 989.8193
249.0070, 1021.855
250.2220, 1138.259
251.4370, 1327.384
252.6510, 1142.686
253.8660, 682.1934
255.0800, 322.8999
256.2940, 38.79834
257.5080, 314.1304
258.7220, 286.9688
259.9360, 354.2583
261.1490, 127.3926
262.3630, 7.950195
263.5760, 191.6313
264.7890, 745.3730
266.0020, 1047.266
267.2150, 1531.296
268.4270, 2185.461
269.6400, 2863.803
270.8520, 3964.858
272.0640, 5157.804
273.2760, 7149.835
274.4880, 9890.884
275.7000, 12696.70
276.9120, 14527.38
278.1230, 14478.68
279.3340, 13283.43
280.5450, 11049.82
281.7560, 8571.943
282.9670, 6494.039
284.1780, 4537.969
285.3880, 3290.901
286.5980, 2155.955
287.8090, 1375.127
289.0190, 825.4170
290.2290, 319.8232
291.4380, 334.3457
292.6480, 118.9839
293.8570, 54.73877
295.0670, 62.60889
296.2760, 49.59570
297.4850, 1.695313
298.6930, 99.89795
299.9020, 227.2095
301.1110, 265.6284
302.3190, 459.3135
303.5270, 763.4971
304.7350, 1177.652
305.9430, 1890.272
307.1510, 2679.218
308.3580, 3758.029
309.5660, 5507.151
310.7730, 7387.865
311.9800, 9383.878
313.1870, 10974.76
314.3940, 11826.70
315.6010, 11379.76
316.8070, 10418.91
318.0130, 9429.171
319.2200, 8551.532
320.4260, 7536.000
321.6310, 6670.572
322.8370, 5963.250
324.0430, 5353.039
325.2480, 4706.936
326.4540, 4058.938
327.6590, 3402.047
328.8640, 3234.264
330.0680, 2972.587
331.2730, 2606.003
332.4780, 2305.525
333.6820, 2210.151
334.8860, 2189.879
336.0900, 1959.709
337.2940, 1781.640
338.4980, 1428.668
339.7010, 1546.797
340.9050, 1245.024
342.1080, 1231.351
343.3110, 1221.776
344.5140, 1202.298
345.7170, 1450.918
346.9200, 1652.637
348.1220, 2203.450
349.3240, 2941.362
350.5270, 3872.369
351.7290, 4993.474
352.9310, 6388.671
354.1320, 8061.967
355.3340, 9405.355
356.5350, 10504.84
357.7370, 10370.42
358.9380, 9803.089
360.1390, 8697.854
361.3400, 7082.714
362.5400, 5342.665
363.7410, 3945.709
364.9410, 3018.895
366.1410, 2175.212
367.3410, 1634.648
368.5410, 1047.196
369.7410, 685.8516
370.9400, 166.6104
372.1400, 80.53027
373.3390, 265.6240
374.5380, 270.7539
375.7370, 324.9238
376.9360, 267.1572
378.1350, 102.4297
379.3330, 93.66895
380.5310, 20.12891
381.7300, 50.98926
382.9280, 110.0518
384.1260, 161.0820
385.3230, 176.1035
386.5210, 246.1201
387.7180, 269.1641
388.9160, 223.2451
390.1130, 57.34180
391.3100, 181.6191
392.5060, 393.6777
393.7030, 764.8369
394.9000, 1289.099
396.0960, 1702.465
397.2920, 2369.937
398.4880, 3010.512
399.6840, 3871.190
400.8800, 4719.459
402.0750, 5664.459
403.2710, 6419.070
404.4660, 7237.155
405.6610, 7720.715
406.8560, 8186.410
408.0510, 8629.820
409.2450, 8764.355
410.4400, 8925.000
411.6340, 8607.800
412.8280, 8338.770
414.0220, 7840.910
415.2160, 7164.230
416.4100, 6480.753
417.6030, 5749.491
418.7970, 5296.445
419.9900, 4841.627
421.1830, 4408.025
422.3760, 4173.646
423.5690, 3761.526
424.7610, 3453.655
425.9540, 2936.023
427.1460, 2374.560
428.3380, 1996.230
429.5300, 1618.045
430.7220, 1420.985
431.9140, 1219.064
433.1050, 894.2891
434.2970, 989.6338
435.4880, 914.1113
436.6790, 802.7402
437.8700, 1009.512
439.0610, 766.4131
440.2510, 611.4609
441.4420, 399.6611
442.6320, 57.99316
443.8220, 24.46973
445.0120, 152.9229
446.2020, 342.2588
447.3910, 260.6201
448.5810, 327.9697
449.7700, 213.3359
450.9600, 100.6758
452.1490, 37.04785
453.3370, 25.13477
454.5260, 86.76465
455.7150, 122.7568
456.9030, 172.8408
458.0910, 222.0166
459.2800, 330.2832
460.4670, 322.6416
461.6550, 493.0908
462.8430, 576.6309
464.0300, 735.2617
465.2180, 775.9814
466.4050, 821.7920
467.5920, 793.6914
468.7790, 796.6816
469.9650, 910.7607
471.1520, 1112.929
472.3380, 1042.186
473.5250, 1055.531
474.7110, 1403.967
475.8970, 1650.489
477.0820, 2043.101
478.2680, 2568.800
479.4540, 3031.587
480.6390, 3633.463
481.8240, 4235.424
483.0090, 4666.473
484.1940, 5474.607
485.3780, 5840.828
486.5630, 6268.135
487.7470, 6544.529
488.9320, 6915.006
490.1160, 7560.568
491.3000, 8230.216
492.4830, 8973.947
493.6670, 9936.761
494.8500, 11134.66
496.0340, 12371.64
497.2170, 13323.70
498.4000, 14330.84
499.5820, 15445.07
500.7650, 16261.37
501.9480, 16586.75
503.1300, 17059.22
504.3120, 17047.76
505.4940, 17479.39
506.6760, 17749.08
507.8580, 17735.86
509.0390, 18083.72
510.2210, 18342.64
511.4020, 18622.65
512.5830, 18460.73
513.7640, 18222.88
514.9450, 18003.99
516.1250, 17824.74
517.3060, 17455.32
518.4860, 17404.04
519.6660, 17211.03
520.8460, 17614.53
522.0260, 18244.57
523.2060, 19178.09
524.3850, 20222.49
525.5650, 21620.05
526.7440, 23250.15
527.9230, 24748.62
529.1020, 26311.66
530.2810, 27370.57
531.4590, 28240.03
532.6380, 29114.92
533.8160, 28878.35
534.9940, 28379.84
536.1720, 27170.41
537.3500, 25810.06
538.5270, 24101.78
539.7050, 22522.56
540.8820, 20755.42
542.0590, 19333.35
543.2360, 18194.37
544.4130, 17454.54
545.5900, 17364.88
546.7660, 17215.38
547.9430, 17648.06
549.1190, 18225.04
550.2950, 19175.06
551.4710, 20213.64
552.6470, 21922.06
553.8220, 23684.35
554.9980, 25645.31
556.1730, 27239.45
557.3480, 28470.29
558.5230, 28764.32
559.6980, 28896.77
560.8730, 28529.30
562.0470, 27962.14
563.2220, 27640.20
564.3960, 27069.65
565.5700, 26204.60
566.7440, 24786.14
567.9170, 23015.02
569.0910, 21201.17
570.2640, 19097.03
571.4380, 17183.81
572.6110, 15379.40
573.7840, 13770.14
574.9570, 12840.71
576.1290, 12081.47
577.3020, 11369.71
578.4740, 11286.04
579.6460, 11387.58
580.8180, 11666.10
581.9900, 12271.78
583.1620, 13134.28
584.3330, 14044.70
585.5040, 15439.16
586.6760, 17114.86
587.8470, 18825.97
589.0180, 21080.45
590.1880, 24212.98
591.3590, 27551.05
592.5290, 31434.59
593.7000, 36081.56
594.8700, 40603.61
596.0400, 44972.24
597.2090, 48000.63
598.3790, 49595.05
599.5490, 48782.52
600.7180, 45782.04
601.8870, 41495.63
603.0560, 36083.26
604.2250, 30923.93
605.3940, 26226.66
606.5620, 22706.43
607.7300, 19517.24
608.8990, 17151.14
610.0670, 15367.09
611.2350, 14189.11
612.4020, 13089.20
613.5700, 12232.34
614.7370, 11709.56
615.9050, 11085.83
617.0720, 10464.15
618.2390, 9743.508
619.4060, 8784.905
620.5720, 8167.326
621.7390, 7667.787
622.9050, 7077.287
624.0710, 6828.811
625.2370, 6623.333
626.4030, 6532.884
627.5690, 6469.456
628.7340, 6570.032
629.9000, 6668.602
631.0650, 6788.168
632.2300, 6840.736
633.3950, 6999.296
634.5600, 6898.850
635.7240, 6639.395
636.8890, 6215.931
638.0530, 5920.457
639.2170, 5142.967
640.3810, 4879.467
641.5450, 4392.951
642.7080, 4120.422
643.8720, 3884.878
645.0350, 3953.317
646.1980, 3686.738
647.3610, 3659.143
648.5240, 3863.529
649.6870, 3770.896
650.8490, 3891.243
652.0120, 3972.568
653.1740, 4200.874
654.3360, 4250.155
655.4980, 4380.441
656.6600, 4482.771
657.8210, 4515.142
658.9830, 4459.568
660.1440, 4375.037
661.3050, 4136.506
662.4660, 3730.979
663.6270, 3509.428
664.7870, 3152.868
665.9480, 2765.309
667.1080, 2409.762
668.2680, 2021.229
669.4280, 1875.725
670.5880, 1551.253
671.7480, 1370.802
672.9070, 1169.338
674.0670, 969.8374
675.2260, 875.3018
676.3850, 736.7295
677.5440, 628.0742
678.7030, 561.5454
679.8610, 469.7856
681.0200, 442.0605
682.1780, 422.2944
683.3360, 371.4878
684.4940, 339.6392
685.6520, 439.7471
686.8090, 225.8110
687.9670, 35.82764
689.1240, 11.77441
690.2810, 71.63672
691.4380, 115.5659
692.5950, 157.9238
693.7520, 165.4600
694.9080, 181.1816
696.0650, 189.2603
697.2210, 189.6328
698.3770, 177.5312
699.5330, 176.0474
700.6880, 146.7607
701.8440, 115.6592
702.9990, 135.7266
704.1550, 172.9751
705.3100, 180.4253
706.4650, 8.083496
707.6190, 5.141113
708.7740, 67.74658
709.9290, 0.7856450
711.0830, 43.73145
712.2370, 76.02881
713.3910, 25.68848
714.5450, 25.20020
715.6980, 94.89844
716.8520, 62.76953
718.0050, 16.79688
719.1580, 78.82812
720.3110, 32.05615
721.4640, 91.45215
722.6170, 73.09668
723.7700, 24.67920
724.9220, 69.08789
726.0740, 78.60938
727.2260, 71.84717
728.3780, 59.81396
729.5300, 110.6387
730.6810, 218.5283
731.8330, 251.2783
732.9840, 306.5342
734.1350, 308.1812
735.2860, 385.2207
736.4370, 398.7119
737.5880, 534.3374
738.7380, 494.8516
739.8880, 637.0044
741.0390, 710.5464
742.1890, 879.5400
743.3380, 878.4438
744.4880, 905.0654
745.6380, 1076.149
746.7870, 1036.875
747.9360, 1194.189
749.0850, 1208.753
750.2340, 1453.317
751.3830, 1548.781
752.5310, 1532.723
753.6800, 1702.081
754.8280, 1839.064
755.9760, 2048.492
757.1240, 2248.067
758.2720, 2276.521
759.4190, 2358.079
760.5670, 2493.538
761.7140, 2711.199
762.8610, 2773.968
764.0080, 2948.826
765.1550, 2857.278
766.3020, 2839.289
767.4480, 2862.647
768.5950, 2866.040
769.7410, 2897.696
770.8870, 2828.795
772.0330, 2678.035
773.1780, 2703.958
774.3240, 2676.062
775.4690, 2595.810
776.6140, 2729.470
777.7590, 2675.044
778.9040, 2628.529
780.0490, 2733.927
781.1940, 2730.237
782.3380, 2760.461
783.4820, 2945.596
784.6260, 3157.645
785.7700, 3289.605
786.9140, 3446.478
788.0580, 3563.264
789.2010, 3674.962
790.3450, 3940.572
791.4880, 4064.097
792.6310, 4231.534
793.7730, 4489.883
794.9160, 4693.146
796.0590, 4737.321
797.2010, 4925.409
798.3430, 5062.409
799.4850, 4997.319
800.6270, 4983.145
801.7690, 4938.880
802.9100, 4734.529
804.0520, 4569.088
805.1930, 4428.561
806.3340, 4147.947
807.4750, 3883.245
808.6160, 3724.634
809.7560, 3704.576
810.8970, 3323.610
812.0370, 3260.556
813.1770, 2999.415
814.3170, 2876.187
815.4570, 2621.871
816.5960, 2490.471
817.7360, 2352.983
818.8750, 2152.409
820.0140, 2094.750
821.1530, 1948.285
822.2920, 1893.175
823.4310, 1730.260
824.5690, 1626.196
825.7070, 1509.838
826.8460, 1520.430
827.9840, 1435.444
829.1220, 1298.589
830.2590, 1207.853
831.3970, 1088.427
832.5340, 966.8018
833.6710, 991.4644
834.8080, 848.9033
835.9450, 843.9082
837.0820, 773.8179
838.2190, 777.3833
839.3550, 681.7241
840.4910, 575.6333
841.6270, 540.0376
842.7630, 514.8130
843.8990, 488.2500
845.0350, 470.3647
846.1700, 434.7559
847.3060, 300.2036
848.4410, 441.8101
849.5760, 282.2510
850.7100, 215.8379
851.8450, 307.1924
852.9800, 339.0430
854.1140, 324.7852
855.2480, 237.2925
856.3820, 118.7871
857.5160, 225.0923
858.6500, 255.5586
859.7830, 176.0723
860.9170, 107.5205
862.0500, 41.54688
863.1830, 146.7275
864.3160, 168.6348
865.4480, 64.09619
866.5810, 49.76855
867.7130, 52.16846
868.8460, 40.10547
869.9780, 49.03320
871.1100, 58.08057
872.2410, 99.94189
873.3730, 104.9146
874.5050, 121.9746
875.6360, 119.1841
876.7670, 96.52441
877.8980, 58.98242
879.0290, 92.53613
880.1590, 91.20264
881.2900, 101.7769
882.4200, 210.8696
883.5500, 143.9287
884.6800, 199.1211
885.8100, 234.4731
886.9400, 109.0020
888.0690, 263.6392
889.1990, 162.4653
890.3280, 128.4243
891.4570, 107.4971
892.5860, 129.6704
893.7140, 67.95312
894.8430, 137.3120
895.9710, 139.7803
897.1000, 83.35840
898.2280, 15.98633
899.3560, 110.6992
900.4830, 92.47266
901.6110, 35.32178
902.7380, 109.7847
903.8660, 2.867676
904.9930, 40.07666
906.1200, 52.93799
907.2460, 5.069824
908.3730, 71.89746
909.5000, 8.155762
910.6260, 117.7666
911.7520, 106.6704
912.8780, 179.5571
914.0040, 220.4272
915.1290, 244.9395
916.2550, 304.1201
917.3800, 317.9448
918.5050, 386.7559
919.6300, 434.5537
920.7550, 461.3389
921.8800, 531.1133
923.0040, 563.8770
924.1290, 657.6304
925.2530, 707.3750
926.3770, 880.1108
927.5010, 980.8398
928.6250, 1007.562
929.7480, 1273.278
930.8720, 1265.996
931.9950, 1513.712
933.1180, 1595.427
934.2410, 1824.142
935.3640, 2183.861
936.4860, 2509.584
937.6090, 2701.308
938.7310, 3069.035
939.8530, 3550.766
940.9750, 4082.507
942.0970, 4501.251
943.2180, 5106.006
944.3400, 5679.764
945.4610, 6176.526
946.5820, 6667.310
947.7030, 7109.099
948.8240, 7487.907
949.9450, 7767.732
951.0650, 8141.575
952.1860, 8122.439
953.3060, 8208.323
954.4260, 8300.220
955.5460, 8420.127
956.6650, 8391.046
957.7850, 8291.976
958.9040, 8728.922
960.0230, 9009.888
961.1420, 9223.888
962.2610, 9821.939
963.3800, 10559.06
964.4990, 11281.29
965.6170, 12290.63
966.7350, 13509.07
967.8530, 14330.66
968.9710, 15608.37
970.0890, 17113.19
971.2070, 18169.12
972.3240, 19212.16
973.4410, 20003.30
974.5580, 20896.55
975.6750, 21496.89
976.7920, 21949.37
977.9090, 22685.97
979.0250, 23798.64
980.1410, 25431.38
981.2580, 27677.16
982.3740, 30157.90
983.4890, 33621.90
984.6050, 37049.83
985.7200, 41219.34
986.8360, 43984.59
987.9510, 44533.90
989.0660, 46444.37
990.1810, 42595.74
991.2950, 38638.23
992.4100, 33977.80
993.5240, 29737.57
994.6390, 25623.21
995.7530, 22656.46
996.8660, 20309.95
997.9800, 18662.77
999.0940, 17387.91
1000.207, 16734.22
1001.320, 16517.51
1002.433, 16538.93
1003.546, 16580.81
1004.659, 17054.27
1005.772, 17750.32
1006.884, 18941.89
1007.996, 20451.30
1009.108, 22645.81
1010.220, 25153.66
1011.332, 28148.10
1012.444, 31775.06
1013.555, 35525.09
1014.666, 39479.38
1015.777, 43201.20
1016.888, 45978.33
1017.999, 47468.86
1019.110, 47793.11
1020.220, 47252.35
1021.331, 45534.66
1022.441, 42871.47
1023.551, 39957.85
1024.661, 36836.55
1025.770, 33950.82
1026.880, 31513.90
1027.989, 29254.07
1029.098, 27508.12
1030.207, 25737.24
1031.316, 24506.14
1032.425, 23322.90
1033.533, 22021.55
1034.642, 21210.58
1035.750, 20816.03
1036.858, 20203.11
1037.966, 19895.12
1039.073, 19510.86
1040.181, 18985.12
1041.288, 18641.22
1042.396, 18220.62
1043.503, 17678.81
1044.610, 16938.34
1045.716, 16317.94
1046.823, 16073.59
1047.929, 15750.31
1049.036, 15226.10
1050.142, 15141.95
1051.248, 15076.87
1052.353, 15140.86
1053.459, 15344.91
1054.564, 15546.03
1055.670, 16239.22
1056.775, 16725.47
1057.880, 17227.79
1058.985, 18074.18
1060.089, 18395.63
1061.194, 18656.15
1062.298, 18552.07
1063.402, 18593.50
1064.506, 18280.83
1065.610, 17612.93
1066.713, 17073.37
1067.817, 16632.23
1068.920, 16253.52
1070.023, 15833.57
1071.126, 15536.63
1072.229, 15109.86
1073.332, 14799.30
1074.435, 14572.63
1075.537, 14471.35
1076.639, 14278.82
1077.741, 14066.35
1078.843, 13716.10
1079.945, 13619.77
1081.046, 13262.04
1082.148, 12952.80
1083.249, 12266.30
1084.350, 12160.07
1085.451, 11469.67
1086.551, 11012.88
1087.652, 10411.00
1088.752, 9647.198
1089.853, 9011.460
1090.953, 8685.787
1092.053, 8041.719
1093.152, 7740.439
1094.252, 7080.896
1095.351, 6668.875
1096.451, 6247.803
1097.550, 5849.749
1098.649, 5713.333
1099.748, 5310.768
1100.846, 5190.137
1101.945, 5121.947
1103.043, 4914.115
1104.141, 5020.306
1105.239, 5023.215
1106.337, 4989.611
1107.434, 5135.109
1108.532, 5493.688
1109.629, 5738.574
1110.726, 6397.871
1111.823, 6990.697
1112.920, 7800.217
1114.017, 8514.984
1115.113, 8962.832
1116.210, 9186.680
1117.306, 9387.447
1118.402, 8990.763
1119.498, 8499.110
1120.593, 7813.181
1121.689, 7406.141
1122.784, 6912.111
1123.879, 6496.137
1124.974, 6141.447
1126.069, 5905.665
1127.164, 5508.778
1128.259, 5192.238
1129.353, 4939.253
1130.447, 4648.336
1131.541, 4492.071
1132.635, 4331.274
1133.729, 4125.079
1134.822, 4023.847
1135.916, 3745.418
1137.009, 3662.060
1138.102, 3676.395
1139.195, 3446.559
1140.288, 3428.861
1141.380, 3331.000
1142.473, 3472.031
1143.565, 3448.156
1144.657, 3394.346
1145.749, 3349.826
1146.841, 3409.162
1147.932, 3287.988
1149.024, 3211.523
1150.115, 3009.212
1151.206, 2764.590
1152.297, 2433.383
1153.388, 2183.294
1154.479, 1995.321
1155.569, 1736.570
1156.659, 1758.760
1157.750, 1617.020
1158.839, 1479.427
1159.929, 1352.816
1161.019, 1349.275
1162.108, 1267.807
1163.198, 1114.391
1164.287, 1235.015
1165.376, 1210.696
1166.465, 1098.434
1167.553, 1035.208
1168.642, 951.0093
1169.730, 968.8413
1170.818, 850.7139
1171.906, 771.6157
1172.994, 753.5454
1174.082, 658.8442
1175.170, 497.4844
1176.257, 517.4912
1177.344, 442.5210
1178.431, 329.5723
1179.518, 368.6455
1180.605, 293.7397
1181.691, 258.8540
1182.778, 212.9893
1183.864, 186.1440
1184.950, 93.31738
1186.036, 73.50928
1187.122, 140.7197
1188.207, 18.94727
1189.292, 133.1919
1190.378, 13.45264
1191.463, 29.72900
1192.548, 21.97949
1193.632, 42.67822
1194.717, 35.25537
1195.801, 19.05859
1196.886, 32.73828
1197.970, 45.41211
1199.054, 56.08496
1200.137, 27.23975
1201.221, 42.42480
1202.305, 3.910156
1203.388, 74.74609
1204.471, 17.58496
1205.554, 50.07617
1206.637, 49.68896
1207.719, 32.03027
1208.802, 88.62109
1209.884, 33.70312
1210.966, 71.91455
1212.048, 57.60400
1213.130, 48.30859
1214.212, 51.82373
1215.293, 66.76025
1216.374, 1.516113
1217.456, 51.93848
1218.536, 48.09326
1219.617, 49.51025
1220.698, 36.30811
1221.778, 10.62598
1222.859, 47.38135
1223.939, 77.15967
1225.019, 162.9771
1226.099, 142.8770
1227.178, 76.85645
1228.258, 113.8794
1229.337, 172.9658
1230.417, 73.13232
1231.496, 77.03564
1232.574, 63.70459
1233.653, 27.14160
1234.732, 0.4101560
1235.810, 105.8296
1236.888, 24.26758
1237.966, 118.7344
1239.044, 41.12891
1240.122, 28.85205
1241.199, 66.33838
1242.277, 44.97656
1243.354, 91.71484
1244.431, 42.48047
1245.508, 56.29443
1246.585, 51.16699
1247.661, 5.903809
1248.738, 7.973145
1249.814, 41.27686
1250.890, 52.13818
1251.966, 68.09668
1253.042, 73.61670
1254.117, 26.42969
1255.193, 38.16211
1256.268, 33.85254
1257.343, 5.060547
1258.418, 27.31396
1259.493, 153.4941
1260.567, 14.20361
1261.642, 103.0049
1262.716, 65.82568
1263.790, 21.59082
1264.864, 89.10547
1265.938, 94.15088
1267.011, 66.91553
1268.085, 78.08789
1269.158, 27.60254
1270.231, 58.16357
1271.304, 20.39453
1272.377, 153.8770
1273.450, 139.0391
1274.522, 41.18018
1275.594, 165.4248
1276.666, 64.69824
1277.738, 164.8843
1278.810, 81.79492
1279.882, 142.0986
1280.953, 47.14209
1282.025, 171.5073
1283.096, 198.8804
1284.167, 136.0269
1285.238, 168.0020
1286.308, 168.8926
1287.379, 151.5791
1288.449, 195.2388
1289.519, 223.9458
1290.589, 234.7637
1291.659, 186.4863
1292.729, 252.7910
1293.798, 245.4390
1294.868, 251.3188
1295.937, 278.8394
1297.006, 281.6626
1298.075, 250.3843
1299.143, 303.9146
1300.212, 256.1611
1301.280, 242.7671
1302.348, 331.6162
1303.416, 287.9268
1304.484, 412.2554
1305.552, 386.4961
1306.620, 360.6719
1307.687, 484.8115
1308.754, 338.9150
1309.821, 479.9810
1310.888, 372.0103
1311.955, 350.0024
1313.021, 372.9570
1314.088, 444.8750
1315.154, 333.7544
1316.220, 479.5962
1317.286, 362.3994
1318.352, 420.1655
1319.417, 415.8926
1320.483, 460.5840
1321.548, 411.9048
1322.613, 346.7432
1323.678, 417.7129
1324.743, 322.9551
1325.807, 376.8794
1326.872, 286.4136
1327.936, 361.5518
1329.000, 325.9478
1330.064, 352.3760
1331.128, 406.6665
1332.191, 339.7651
1333.255, 312.0117
1334.318, 212.8936
1335.381, 286.0596
1336.444, 294.1875
1337.507, 302.1182
1338.569, 273.1694
1339.632, 349.6406
1340.694, 356.6577
1341.756, 424.9624
1342.818, 333.0127
1343.880, 340.2637
1344.941, 237.9478
1346.003, 260.7305
1347.064, 265.4766
1348.125, 261.1865
1349.186, 264.8604
1350.247, 344.9619
1351.308, 341.2979
1352.368, 414.9209
1353.428, 281.0430
1354.489, 339.2437
1355.549, 280.3945
1356.608, 281.1880
1357.668, 253.9609
1358.727, 255.8218
1359.787, 253.2656
1360.846, 146.3760
1361.905, 140.4897
1362.964, 218.2842
1364.022, 283.2041
1365.081, 242.2334
1366.139, 197.9814
1367.197, 230.4834
1368.255, 277.5400
1369.313, 262.1382
1370.371, 283.4746
1371.428, 282.9722
1372.486, 290.0386
1373.543, 257.5811
1374.600, 236.2822
1375.657, 190.4141
1376.713, 187.6279
1377.770, 269.4058
1378.826, 206.9409
1379.882, 123.6064
1380.938, 288.1455
1381.994, 76.38037
1383.050, 68.75830
1384.106, 235.0151
1385.161, 214.3350
1386.216, 163.9355
1387.271, 151.7109
1388.326, 125.0615
1389.381, 100.0737
1390.435, 105.4126
1391.490, 136.7065
1392.544, 173.8647
1393.598, 141.4790
1394.652, 67.95508
1395.705, 119.6548
1396.759, 107.2681
1397.812, 192.3179
1398.866, 112.3145
1399.919, 244.4917
1400.972, 193.5166
1402.024, 138.1938
1403.077, 126.0591
1404.129, 30.51953
1405.181, 64.32080
1406.233, 1.918457
1407.285, 150.7837
1408.337, 89.87061
1409.389, 37.51660
1410.440, 44.25146
1411.491, 133.6987
1412.542, 55.25244
1413.593, 204.7720
1414.644, 59.19043
1415.695, 199.6562
1416.745, 136.0469
1417.795, 151.4077
1418.845, 28.74365
1419.895, 154.0312
1420.945, 102.2847
1421.995, 169.5103
1423.044, 123.5767
1424.093, 90.60596
1425.142, 46.59863
1426.191, 57.78955
1427.240, 108.4688
1428.289, 78.34814
1429.337, 159.1860
1430.385, 145.9883
1431.433, 157.7515
1432.481, 180.4761
1433.529, 252.1621
1434.577, 231.8086
1435.624, 277.4194
1436.672, 364.0005
1437.719, 273.5508
1438.766, 289.1401
1439.812, 482.6357
1440.859, 439.1064
1441.905, 406.5581
1442.952, 434.9941
1443.998, 615.6230
1445.044, 626.0337
1446.090, 644.0776
1447.135, 648.7480
1448.181, 610.9062
1449.226, 550.0820
1450.271, 524.2036
1451.316, 473.2749
1452.361, 555.2866
1453.405, 503.2524
1454.450, 614.7046
1455.494, 650.5566
1456.538, 464.3140
1457.582, 500.1021
1458.626, 585.8667
1459.670, 499.2241
1460.713, 461.6211
1461.757, 408.0674
1462.800, 477.6221
1463.843, 472.2681
1464.886, 458.9790
1465.928, 405.7773
1466.971, 380.6572
1468.013, 243.2700
1469.055, 242.1479
1470.097, 227.9600
1471.139, 253.8804
1472.181, 262.8779
1473.222, 220.9473
1474.263, 247.9697
1475.305, 231.9839
1476.346, 272.3315
1477.386, 297.5854
1478.427, 216.7251
1479.468, 364.6733
1480.508, 152.4043
1481.548, 97.71631
1482.588, 311.8735
1483.628, 258.7935
1484.668, 201.3174
1485.707, 165.1514
1486.747, 134.3589
1487.786, 54.15674
1488.825, 121.3257
1489.864, 67.26318
1490.902, 144.3291
1491.941, 102.0889
1492.979, 126.4487
1494.017, 98.89355
1495.055, 28.42676
1496.093, 66.39795
1497.131, 63.65234
1498.168, 164.4077
1499.206, 108.7695
1500.243, 131.0869
1501.280, 81.54932
1502.317, 33.13818
1503.354, 129.7720
1504.390, 74.39893
1505.426, 96.02148
1506.463, 103.6406
1507.499, 95.25879
1508.535, 33.12695
1509.570, 57.48389
1510.606, 224.0791
1511.641, 46.64990
1512.676, 140.1978
1513.711, 101.7358
1514.746, 18.25977
1515.781, 27.77197
1516.816, 161.2847
1517.850, 15.79004
1518.884, 161.2822
1519.918, 197.7886
1520.952, 140.2881
1521.986, 89.23779
1523.019, 188.2051
1524.053, 42.62158
1525.086, 72.07520
1526.119, 136.5210
1527.152, 119.5669
1528.185, 213.9824
1529.217, 82.36719
1530.250, 76.68945
1531.282, 94.72266
1532.314, 188.3281
1533.346, 155.4180
1534.377, 65.01465
1535.409, 187.9170
1536.440, 192.5586
1537.472, 129.2012
1538.503, 195.5786
1539.534, 214.4229
1540.564, 110.3301
1541.595, 91.94531
1542.625, 205.4746
1543.656, 177.2212
1544.686, 97.30371
1545.716, 111.5444
1546.745, 186.1421
1547.775, 148.7031
1548.804, 199.6729
1549.834, 170.9995
1550.863, 70.32471
1551.892, 115.1807
1552.920, 113.9722
1553.949, 160.1904
1554.977, 176.0146
1556.006, 218.6953
1557.034, 184.6914
1558.062, 138.6113
1559.089, 89.70557
1560.117, 70.04395
1561.144, 62.71875
1562.172, 23.92285
1563.199, 67.76709
1564.226, 69.18018
1565.252, 52.49365
1566.279, 176.6294
1567.305, 5.660645
1568.332, 180.7900
1569.358, 0.8383790
1570.384, 0.0000000E+00
##END=



