##NAMES=Brookite
##RRUFFID=R050363
##IDEAL CHEMISTRY=TiO_2_
##LOCALITY=Magnet Cove, Arkansas, USA
##OWNER=RRUFF
##SOURCE=University of Arizona Mineral Museum
##DESCRIPTION=Black fragment of a prismatic crystal associated with quartz
##STATUS=The identification of this mineral has been confirmed by X-ray diffraction and chemical analysis
##URL=rruff.info/R050363
##MEASURED CHEMISTRY=(Ti_0.94_Nb^5+^_0.03_Fe^3+^_0.03_)_Î£=1_O_2_
##PIN_ID=L01899
##ORIENTATION=Laser parallel to b* (0 1 0). Fiducial mark perpendicular to laser is parallel to c [0 0 1]
51.43100, 0.0000000E+00
52.67100, 71.09198
53.91000, 146.0296
55.14900, 176.1719
56.38700, 248.1464
57.62600, 298.0171
58.86400, 210.5641
60.10300, 66.27246
61.34100, 0.5921630
62.57900, 39.54626
63.81700, 70.05640
65.05400, 36.62561
66.29200, 16.23828
67.52900, 95.07727
68.76700, 331.4927
70.00400, 725.1387
71.24100, 1020.705
72.47700, 1158.896
73.71400, 1397.689
74.95100, 1732.902
76.18700, 2044.210
77.42300, 2269.349
78.65900, 2546.092
79.89500, 2997.257
81.13100, 3402.700
82.36700, 3840.309
83.60200, 4162.980
84.83700, 4256.620
86.07200, 4299.147
87.30800, 4451.483
88.54200, 4868.554
89.77700, 5230.252
91.01200, 5737.435
92.24600, 6247.988
93.48000, 6277.042
94.71400, 6453.647
95.94800, 6836.229
97.18200, 6884.640
98.41600, 7126.864
99.64900, 7539.891
100.8830, 7555.708
102.1160, 7883.306
103.3490, 8181.679
104.5820, 8822.817
105.8150, 9351.721
107.0470, 9844.406
108.2800, 10687.91
109.5120, 11450.29
110.7440, 11065.55
111.9760, 10645.69
113.2080, 10893.69
114.4400, 11391.53
115.6710, 12419.18
116.9030, 12831.65
118.1340, 13663.90
119.3650, 14539.93
120.5960, 15779.74
121.8270, 17258.29
123.0580, 17624.58
124.2880, 17403.62
125.5190, 16904.23
126.7490, 16844.99
127.9790, 17184.86
129.2090, 17830.83
130.4390, 18639.88
131.6680, 19099.02
132.8980, 19937.35
134.1270, 20968.96
135.3560, 22482.75
136.5850, 24568.82
137.8140, 27124.21
139.0430, 29770.01
140.2710, 33036.70
141.5000, 36419.79
142.7280, 40237.31
143.9560, 44603.25
145.1840, 48495.62
146.4120, 52263.45
147.6390, 54558.69
148.8670, 55368.40
150.0940, 55127.55
151.3210, 53828.15
152.5490, 51049.19
153.7750, 48120.70
155.0020, 45118.66
156.2290, 41544.07
157.4550, 38292.94
158.6810, 34506.28
159.9080, 31016.13
161.1340, 27166.80
162.3590, 23467.43
163.5850, 20651.15
164.8110, 17856.90
166.0360, 15758.73
167.2610, 13480.28
168.4860, 11827.99
169.7110, 9502.990
170.9360, 8604.350
172.1610, 6532.039
173.3850, 5364.354
174.6100, 4225.602
175.8340, 3455.417
177.0580, 2831.599
178.2820, 2254.300
179.5050, 1885.400
180.7290, 1520.360
181.9520, 1404.021
183.1760, 1097.054
184.3990, 981.4570
185.6220, 1068.230
186.8450, 816.3750
188.0670, 982.8887
189.2900, 1056.771
190.5120, 923.0244
191.7340, 911.6445
192.9560, 736.6338
194.1780, 536.9902
195.4000, 616.7129
196.6220, 550.8027
197.8430, 451.2578
199.0640, 457.9717
200.2860, 702.3125
201.5070, 1146.306
202.7270, 1427.979
203.9480, 1349.317
205.1690, 1371.470
206.3890, 1396.276
207.6090, 1631.210
208.8290, 1939.086
210.0490, 1780.308
211.2690, 1526.096
212.4890, 1218.152
213.7080, 743.6943
214.9280, 483.8408
216.1470, 78.57129
217.3660, 54.13281
218.5850, 337.2930
219.8030, 411.9541
221.0220, 702.1426
222.2400, 515.9170
223.4590, 502.2617
224.6770, 275.1865
225.8950, 158.6729
227.1120, 131.2822
228.3300, 277.6816
229.5480, 595.5156
230.7650, 1149.777
231.9820, 1598.459
233.1990, 2294.551
234.4160, 3011.047
235.6330, 4167.939
236.8490, 5435.222
238.0660, 6954.890
239.2820, 8518.935
240.4980, 10187.36
241.7140, 11094.13
242.9300, 10766.27
244.1460, 9757.740
245.3610, 8133.562
246.5770, 6199.725
247.7920, 4813.229
249.0070, 3902.067
250.2220, 3371.241
251.4370, 3078.749
252.6510, 2628.586
253.8660, 2117.752
255.0800, 1342.244
256.2940, 1017.059
257.5080, 843.1924
258.7220, 957.6436
259.9360, 1127.410
261.1490, 796.4873
262.3630, 704.8750
263.5760, 714.5693
264.7890, 779.1807
266.0020, 1100.537
267.2150, 1411.333
268.4270, 1901.738
269.6400, 2239.239
270.8520, 2689.225
272.0640, 3176.815
273.2760, 3496.015
274.4880, 4090.514
275.7000, 4333.435
276.9120, 4625.842
278.1230, 4745.234
279.3340, 4987.859
280.5450, 4792.193
281.7560, 4663.833
282.9670, 4547.769
284.1780, 4182.445
285.3880, 4052.978
286.5980, 3610.658
287.8090, 3234.628
289.0190, 3184.883
290.2290, 3167.426
291.4380, 2999.254
292.6480, 3080.366
293.8570, 2976.763
295.0670, 3354.441
296.2760, 3417.400
297.4850, 3707.643
298.6930, 3985.164
299.9020, 4155.963
301.1110, 4360.040
302.3190, 5084.395
303.5270, 5282.022
304.7350, 5999.927
305.9430, 6694.103
307.1510, 7696.549
308.3580, 8238.261
309.5660, 9017.236
310.7730, 9667.471
311.9800, 10483.96
313.1870, 11421.70
314.3940, 12017.69
315.6010, 12525.93
316.8070, 13246.42
318.0130, 13544.15
319.2200, 13778.13
320.4260, 14010.35
321.6310, 14068.82
322.8370, 13570.54
324.0430, 12947.49
325.2480, 11623.69
326.4540, 10510.13
327.6590, 9337.805
328.8640, 8047.727
330.0680, 6722.885
331.2730, 5913.283
332.4780, 4987.918
333.6820, 4157.792
334.8860, 3327.899
336.0900, 2686.244
337.2940, 2363.822
338.4980, 2070.635
339.7010, 1678.681
340.9050, 1509.958
342.1080, 1503.468
343.3110, 1539.209
344.5140, 1910.250
345.7170, 2393.596
346.9200, 2811.248
348.1220, 3742.207
349.3240, 4688.479
350.5270, 6104.061
351.7290, 7831.957
352.9310, 9701.165
354.1320, 12227.69
355.3340, 14706.53
356.5350, 18094.68
357.7370, 20817.14
358.9380, 23410.88
360.1390, 25206.92
361.3400, 25611.25
362.5400, 24535.26
363.7410, 22673.38
364.9410, 20022.52
366.1410, 16847.52
367.3410, 14294.73
368.5410, 11648.68
369.7410, 9492.937
370.9400, 8273.199
372.1400, 6941.072
373.3390, 5833.225
374.5380, 5124.650
375.7370, 4700.352
376.9360, 4355.326
378.1350, 4243.576
379.3330, 3967.095
380.5310, 4080.885
381.7300, 4021.948
382.9280, 4226.286
384.1260, 4218.888
385.3230, 4187.777
386.5210, 4336.940
387.7180, 4046.375
388.9160, 4178.078
390.1130, 3973.046
391.3100, 3566.279
392.5060, 3270.799
393.7030, 2863.593
394.9000, 2569.678
396.0960, 2018.079
397.2920, 1789.768
398.4880, 1552.741
399.6840, 1413.012
400.8800, 1075.573
402.0750, 840.4316
403.2710, 857.5947
404.4660, 500.0605
405.6610, 598.8115
406.8560, 227.8633
408.0510, 17.20215
409.2450, 81.82129
410.4400, 75.26855
411.6340, 339.1289
412.8280, 419.8633
414.0220, 400.5049
415.2160, 536.0400
416.4100, 606.5254
417.6030, 626.9893
418.7970, 476.4375
419.9900, 609.7861
421.1830, 685.0977
422.3760, 469.3887
423.5690, 477.6191
424.7610, 456.7666
425.9540, 243.8330
427.1460, 365.7568
428.3380, 46.42773
429.5300, 349.8398
430.7220, 487.5078
431.9140, 829.4326
433.1050, 1132.601
434.2970, 1400.030
435.4880, 2073.708
436.6790, 2247.631
437.8700, 2897.798
439.0610, 3468.211
440.2510, 4066.889
441.4420, 4468.805
442.6320, 5468.948
443.8220, 5964.328
445.0120, 6938.942
446.2020, 7434.787
447.3910, 8314.867
448.5810, 9046.176
449.7700, 9768.715
450.9600, 10703.48
452.1490, 11275.47
453.3370, 11696.69
454.5260, 12380.13
455.7150, 12542.79
456.9030, 12340.68
458.0910, 12177.79
459.2800, 11753.11
460.4670, 11550.66
461.6550, 10949.43
462.8430, 10412.42
464.0300, 9866.617
465.2180, 9327.038
466.4050, 8978.674
467.5920, 8531.528
468.7790, 8131.596
469.9650, 7560.879
471.1520, 7247.375
472.3380, 6825.086
473.5250, 6519.007
474.7110, 6279.141
475.8970, 6023.487
477.0820, 5804.732
478.2680, 5625.809
479.4540, 5445.783
480.6390, 5240.557
481.8240, 5011.341
483.0090, 4812.959
484.1940, 4586.766
485.3780, 4292.779
486.5630, 4216.997
487.7470, 3985.420
488.9320, 3636.047
490.1160, 3479.878
491.3000, 3354.908
492.4830, 3125.141
493.6670, 3362.572
494.8500, 3127.203
496.0340, 3053.030
497.2170, 2980.055
498.4000, 2890.274
499.5820, 3028.688
500.7650, 3070.294
501.9480, 3066.094
503.1300, 3171.085
504.3120, 3352.265
505.4940, 3440.638
506.6760, 3726.232
507.8580, 3946.057
509.0390, 4097.153
510.2210, 4270.494
511.4020, 4540.076
512.5830, 4848.133
513.7640, 5188.766
514.9450, 5663.009
516.1250, 6038.354
517.3060, 6614.875
518.4860, 7178.574
519.6660, 7985.450
520.8460, 8515.502
522.0260, 9114.729
523.2060, 10083.04
524.3850, 10950.06
525.5650, 11718.82
526.7440, 12764.44
527.9230, 13573.71
529.1020, 14588.76
530.2810, 15407.48
531.4590, 16445.79
532.6380, 17622.42
533.8160, 18529.81
534.9940, 19075.65
536.1720, 20436.68
537.3500, 21002.63
538.5270, 21237.96
539.7050, 21964.08
540.8820, 21709.43
542.0590, 22278.63
543.2360, 21995.21
544.4130, 21707.93
545.5900, 21460.21
546.7660, 21059.98
547.9430, 20784.67
549.1190, 20682.48
550.2950, 19392.22
551.4710, 18827.98
552.6470, 18391.24
553.8220, 17277.82
554.9980, 16672.63
556.1730, 15987.44
557.3480, 15460.75
558.5230, 15055.57
559.6980, 14419.42
560.8730, 14223.12
562.0470, 13668.02
563.2220, 13597.97
564.3960, 13274.55
565.5700, 13049.91
566.7440, 12911.13
567.9170, 12736.71
569.0910, 12877.46
570.2640, 12896.52
571.4380, 12923.54
572.6110, 13372.07
573.7840, 13407.05
574.9570, 13743.16
576.1290, 13551.57
577.3020, 13576.97
578.4740, 13508.19
579.6460, 13318.49
580.8180, 13122.54
581.9900, 12572.35
583.1620, 12086.17
584.3330, 11375.25
585.5040, 10969.39
586.6760, 10188.20
587.8470, 9567.860
589.0180, 9132.903
590.1880, 8211.284
591.3590, 7672.123
592.5290, 6948.721
593.7000, 6237.955
594.8700, 6065.770
596.0400, 5513.066
597.2090, 5081.094
598.3790, 4731.230
599.5490, 4553.471
600.7180, 3969.817
601.8870, 3917.447
603.0560, 3676.007
604.2250, 3386.671
605.3940, 3180.443
606.5620, 2843.316
607.7300, 2789.293
608.8990, 2502.388
610.0670, 2281.593
611.2350, 2266.902
612.4020, 2162.314
613.5700, 2056.829
614.7370, 2044.450
615.9050, 1831.174
617.0720, 1760.010
618.2390, 1769.962
619.4060, 1716.018
620.5720, 1521.191
621.7390, 1566.466
622.9050, 1674.844
624.0710, 1480.325
625.2370, 1464.903
626.4030, 1496.582
627.5690, 1460.373
628.7340, 1389.268
629.9000, 1485.264
631.0650, 1518.369
632.2300, 1331.560
633.3950, 1262.836
634.5600, 1294.201
635.7240, 1263.646
636.8890, 1263.170
638.0530, 1201.778
639.2170, 1295.468
640.3810, 1250.249
641.5450, 1237.107
642.7080, 1054.045
643.8720, 1050.058
645.0350, 889.1436
646.1980, 940.2969
647.3610, 816.5186
648.5240, 787.8047
649.6870, 718.1543
650.8490, 622.5645
652.0120, 626.0332
653.1740, 670.5596
654.3360, 582.1406
655.4980, 556.4482
656.6600, 430.4688
657.8210, 420.2129
658.9830, 356.0088
660.1440, 296.8525
661.3050, 283.7461
662.4660, 83.68555
663.6270, 118.6572
664.7870, 178.6660
665.9480, 0.7158200
667.1080, 80.76953
668.2680, 55.84961
669.4280, 146.9512
670.5880, 115.0869
671.7480, 109.1699
672.9070, 7.555664
674.0670, 30.62891
675.2260, 48.18164
676.3850, 153.0234
677.5440, 45.94531
678.7030, 19.90137
679.8610, 93.87891
681.0200, 50.91504
682.1780, 90.99121
683.3360, 127.1270
684.4940, 115.3447
685.6520, 47.63770
686.8090, 115.9746
687.9670, 60.39258
689.1240, 136.8662
690.2810, 107.4219
691.4380, 63.05469
692.5950, 34.72070
693.7520, 32.59180
694.9080, 67.94824
696.0650, 44.51855
697.2210, 55.03125
698.3770, 69.47949
699.5330, 167.8643
700.6880, 137.2656
701.8440, 197.6426
702.9990, 16.01562
704.1550, 118.3369
705.3100, 79.65625
706.4650, 0.9589840
707.6190, 45.25000
708.7740, 120.4688
709.9290, 46.17773
711.0830, 36.85254
712.2370, 168.4863
713.3910, 9.107422
714.5450, 98.66992
715.6980, 108.2021
716.8520, 126.7021
718.0050, 86.17383
719.1580, 7.391602
720.3110, 186.9688
721.4640, 314.3057
722.6170, 292.6270
723.7700, 195.9326
724.9220, 238.2119
726.0740, 178.4688
727.2260, 242.6943
728.3780, 372.8975
729.5300, 299.1387
730.6810, 398.4863
731.8330, 282.6328
732.9840, 430.9458
734.1350, 305.1655
735.2860, 402.7812
736.4370, 454.0376
737.5880, 394.9702
738.7380, 506.6177
739.8880, 355.3218
741.0390, 495.0068
742.1890, 488.3457
743.3380, 421.7261
744.4880, 570.2676
745.6380, 519.9663
746.7870, 454.5063
747.9360, 657.2642
749.0850, 573.2871
750.2340, 670.0190
751.3830, 622.8364
752.5310, 645.7183
753.6800, 541.0967
754.8280, 619.0488
755.9760, 740.5483
757.1240, 702.8379
758.2720, 748.9067
759.4190, 767.5142
760.5670, 792.5366
761.7140, 807.7119
762.8610, 907.4487
764.0080, 831.1597
765.1550, 969.0615
766.3020, 1002.898
767.4480, 1003.428
768.5950, 954.5420
769.7410, 872.0830
770.8870, 1017.791
772.0330, 1138.689
773.1780, 1045.183
774.3240, 1075.594
775.4690, 992.6152
776.6140, 1079.399
777.7590, 1054.800
778.9040, 1094.173
780.0490, 1064.416
781.1940, 1081.433
782.3380, 1018.404
783.4820, 1067.636
784.6260, 1130.710
785.7700, 1108.553
786.9140, 1166.326
788.0580, 1133.518
789.2010, 1176.131
790.3450, 1274.064
791.4880, 1098.743
792.6310, 1187.196
793.7730, 1248.665
794.9160, 1138.945
796.0590, 1142.770
797.2010, 1247.694
798.3430, 1281.422
799.4850, 1246.388
800.6270, 1189.475
801.7690, 1325.318
802.9100, 1423.906
804.0520, 1221.305
805.1930, 1347.815
806.3340, 1314.621
807.4750, 1347.004
808.6160, 1376.954
809.7560, 1350.664
810.8970, 1316.862
812.0370, 1350.360
813.1770, 1318.766
814.3170, 1376.164
815.4570, 1352.301
816.5960, 1348.093
817.7360, 1446.332
818.8750, 1439.040
820.0140, 1416.990
821.1530, 1343.332
822.2920, 1261.863
823.4310, 1253.603
824.5690, 1224.762
825.7070, 1212.160
826.8460, 1245.925
827.9840, 1238.837
829.1220, 1288.933
830.2590, 1185.592
831.3970, 1162.396
832.5340, 1165.791
833.6710, 1230.474
834.8080, 1224.279
835.9450, 1124.308
837.0820, 1145.783
838.2190, 1107.549
839.3550, 1032.061
840.4910, 998.3701
841.6270, 1015.676
842.7630, 1044.386
843.8990, 917.2422
845.0350, 878.7251
846.1700, 993.5288
847.3060, 853.7363
848.4410, 776.2695
849.5760, 775.8345
850.7100, 791.5659
851.8450, 749.9434
852.9800, 732.3862
854.1140, 710.8369
855.2480, 694.6357
856.3820, 695.4136
857.5160, 730.6152
858.6500, 625.7246
859.7830, 582.7114
860.9170, 484.7168
862.0500, 528.1528
863.1830, 449.8130
864.3160, 423.1343
865.4480, 397.9995
866.5810, 367.2612
867.7130, 411.0396
868.8460, 365.2544
869.9780, 382.6675
871.1100, 281.5293
872.2410, 186.5566
873.3730, 221.9150
874.5050, 257.1484
875.6360, 149.1841
876.7670, 149.8984
877.8980, 176.7339
879.0290, 97.30176
880.1590, 158.7661
881.2900, 145.0747
882.4200, 25.79053
883.5500, 14.19678
884.6800, 52.21680
885.8100, 67.94141
886.9400, 61.14160
888.0690, 2.530762
889.1990, 24.20605
890.3280, 37.29297
891.4570, 46.84277
892.5860, 11.61133
893.7140, 73.61328
894.8430, 3.190430
895.9710, 27.01074
897.1000, 30.45996
898.2280, 5.143066
899.3560, 25.22412
900.4830, 77.22314
901.6110, 45.48438
902.7380, 41.82764
903.8660, 84.27539
904.9930, 34.12744
906.1200, 20.43555
907.2460, 20.43115
908.3730, 91.48975
909.5000, 26.23486
910.6260, 6.043457
911.7520, 1.521484
912.8780, 52.31787
914.0040, 11.23633
915.1290, 18.75635
916.2550, 23.27393
917.3800, 21.23730
918.5050, 64.86865
919.6300, 71.55713
920.7550, 83.99609
921.8800, 83.56836
923.0040, 123.6602
924.1290, 83.66650
925.2530, 131.5605
926.3770, 145.2998
927.5010, 77.02148
928.6250, 148.7495
929.7480, 77.39795
930.8720, 106.9805
931.9950, 184.5181
933.1180, 100.7700
934.2410, 160.8696
935.3640, 147.8433
936.4860, 221.6646
937.6090, 175.4165
938.7310, 114.0515
939.8530, 143.6682
940.9750, 145.2280
942.0970, 125.5120
943.2180, 117.6724
944.3400, 110.7275
945.4610, 107.6792
946.5820, 134.6360
947.7030, 129.8804
948.8240, 149.5923
949.9450, 143.4431
951.0650, 100.4619
952.1860, 146.1580
953.3060, 114.5999
954.4260, 168.1360
955.5460, 229.5200
956.6650, 148.9736
957.7850, 165.2812
958.9040, 237.8425
960.0230, 185.0674
961.1420, 259.5798
962.2610, 190.8975
963.3800, 218.0059
964.4990, 202.3022
965.6170, 185.4238
966.7350, 218.5327
967.8530, 210.2800
968.9710, 223.0610
970.0890, 196.0120
971.2070, 151.6689
972.3240, 192.4707
973.4410, 259.1245
974.5580, 220.8857
975.6750, 202.4536
976.7920, 166.5532
977.9090, 202.0032
979.0250, 278.6091
980.1410, 248.3811
981.2580, 226.9092
982.3740, 251.1719
983.4890, 198.4827
984.6050, 311.5664
985.7200, 332.3472
986.8360, 330.3347
987.9510, 378.9668
989.0660, 286.5249
990.1810, 360.0095
991.2950, 321.4402
992.4100, 351.7910
993.5240, 325.0588
994.6390, 314.2437
995.7530, 295.3501
996.8660, 285.3745
997.9800, 279.4219
999.0940, 314.8215
1000.207, 354.8706
1001.320, 292.8379
1002.433, 280.8855
1003.546, 337.5676
1004.659, 357.2549
1005.772, 385.6819
1006.884, 281.1863
1007.996, 286.8369
1009.108, 310.4233
1010.220, 318.2974
1011.332, 304.9988
1012.444, 342.9043
1013.555, 338.7817
1014.666, 349.1421
1015.777, 363.1897
1016.888, 363.4934
1017.999, 322.6111
1019.110, 362.7593
1020.220, 302.5208
1021.331, 297.0439
1022.441, 278.3481
1023.551, 286.8521
1024.661, 257.7534
1025.770, 267.6484
1026.880, 287.7996
1027.989, 287.6863
1029.098, 254.6267
1030.207, 274.9353
1031.316, 291.0061
1032.425, 335.2864
1033.533, 307.5459
1034.642, 306.9832
1035.750, 283.9714
1036.858, 267.1030
1037.966, 253.1646
1039.073, 243.0898
1040.181, 251.3762
1041.288, 264.7668
1042.396, 276.3601
1043.503, 248.9170
1044.610, 261.5771
1045.716, 331.5195
1046.823, 176.7463
1047.929, 273.6899
1049.036, 231.7913
1050.142, 214.9900
1051.248, 261.1055
1052.353, 217.1475
1053.459, 246.1721
1054.564, 183.7910
1055.670, 268.4185
1056.775, 259.5190
1057.880, 255.8779
1058.985, 267.7461
1060.089, 243.4199
1061.194, 211.5684
1062.298, 202.6997
1063.402, 188.0691
1064.506, 169.7976
1065.610, 211.2495
1066.713, 219.3977
1067.817, 222.1787
1068.920, 232.4763
1070.023, 224.7078
1071.126, 225.7588
1072.229, 206.1040
1073.332, 193.8252
1074.435, 234.3899
1075.537, 350.7932
1076.639, 262.1545
1077.741, 235.0471
1078.843, 208.1194
1079.945, 115.5500
1081.046, 224.9976
1082.148, 178.3406
1083.249, 118.6433
1084.350, 175.0149
1085.451, 221.2332
1086.551, 177.2173
1087.652, 197.3860
1088.752, 168.1616
1089.853, 188.2759
1090.953, 109.5071
1092.053, 177.3665
1093.152, 91.76440
1094.252, 127.5266
1095.351, 163.6272
1096.451, 105.3762
1097.550, 129.6123
1098.649, 114.6460
1099.748, 185.8540
1100.846, 161.0691
1101.945, 105.0300
1103.043, 160.0916
1104.141, 118.1450
1105.239, 143.6941
1106.337, 112.0837
1107.434, 141.2559
1108.532, 13.13062
1109.629, 143.7139
1110.726, 88.17847
1111.823, 34.59888
1112.920, 71.56543
1114.017, 115.2937
1115.113, 85.25366
1116.210, 116.7432
1117.306, 173.8740
1118.402, 104.2263
1119.498, 239.5283
1120.593, 222.0479
1121.689, 273.9480
1122.784, 220.1802
1123.879, 196.1663
1124.974, 217.2944
1126.069, 165.4487
1127.164, 270.4778
1128.259, 167.6008
1129.353, 135.5000
1130.447, 30.04370
1131.541, 81.23535
1132.635, 49.02100
1133.729, 51.66382
1134.822, 72.06714
1135.916, 66.67285
1137.009, 7.325928
1138.102, 48.06592
1139.195, 63.44019
1140.288, 119.8213
1141.380, 10.16895
1142.473, 28.52832
1143.565, 34.81152
1144.657, 4.335205
1145.749, 61.81201
1146.841, 71.35205
1147.932, 57.13110
1149.024, 3.515869
1150.115, 19.76855
1151.206, 20.51904
1152.297, 28.85010
1153.388, 37.00171
1154.479, 81.13892
1155.569, 59.25903
1156.659, 7.719238
1157.750, 17.56152
1158.839, 15.34717
1159.929, 10.10767
1161.019, 38.96118
1162.108, 30.19604
1163.198, 55.53198
1164.287, 37.99756
1165.376, 8.142334
1166.465, 77.66724
1167.553, 115.4189
1168.642, 123.1179
1169.730, 10.93481
1170.818, 53.59131
1171.906, 34.17749
1172.994, 12.33569
1174.082, 11.10498
1175.170, 49.45093
1176.257, 8.809570
1177.344, 2.350830
1178.431, 46.39233
1179.518, 9.846924
1180.605, 10.14062
1181.691, 10.36865
1182.778, 11.19995
1183.864, 1.052490
1184.950, 18.41895
1186.036, 52.53198
1187.122, 48.00000
1188.207, 108.4297
1189.292, 47.15381
1190.378, 28.93213
1191.463, 3.755127
1192.548, 59.97656
1193.632, 17.16479
1194.717, 9.271729
1195.801, 20.34277
1196.886, 18.40991
1197.970, 15.81934
1199.054, 18.07642
1200.137, 16.66528
1201.221, 37.56348
1202.305, 54.79297
1203.388, 29.86475
1204.471, 59.17358
1205.554, 47.43945
1206.637, 75.71509
1207.719, 62.98340
1208.802, 51.24438
1209.884, 17.48071
1210.966, 30.67114
1212.048, 47.54443
1213.130, 34.57153
1214.212, 10.65137
1215.293, 39.39575
1216.374, 22.69409
1217.456, 90.71143
1218.536, 43.88770
1219.617, 30.86523
1220.698, 25.92627
1221.778, 10.68774
1222.859, 5.803711
1223.939, 57.45142
1225.019, 68.24341
1226.099, 32.81445
1227.178, 38.97217
1228.258, 43.75415
1229.337, 58.47095
1230.417, 90.53198
1231.496, 90.51392
1232.574, 20.18506
1233.653, 35.69263
1234.732, 13.91724
1235.810, 40.02441
1236.888, 5.697021
1237.966, 30.48853
1239.044, 17.70020
1240.122, 64.55127
1241.199, 59.13379
1242.277, 60.53076
1243.354, 70.03906
1244.431, 48.88965
1245.508, 46.73828
1246.585, 72.65503
1247.661, 21.68652
1248.738, 21.65942
1249.814, 8.677002
1250.890, 54.56567
1251.966, 40.09277
1253.042, 51.21802
1254.117, 38.18262
1255.193, 3.118164
1256.268, 6.032471
1257.343, 27.17505
1258.418, 32.87134
1259.493, 64.83301
1260.567, 31.20801
1261.642, 106.2559
1262.716, 23.96729
1263.790, 85.29492
1264.864, 95.70728
1265.938, 66.14746
1267.011, 75.41455
1268.085, 35.85547
1269.158, 33.41602
1270.231, 96.18652
1271.304, 64.47339
1272.377, 65.80273
1273.450, 33.19727
1274.522, 36.59546
1275.594, 30.65576
1276.666, 46.19653
1277.738, 18.76562
1278.810, 27.77466
1279.882, 12.52783
1280.953, 20.63867
1282.025, 122.4617
1283.096, 45.54443
1284.167, 92.02271
1285.238, 108.6531
1286.308, 40.67407
1287.379, 47.39771
1288.449, 49.10791
1289.519, 101.9539
1290.589, 41.17749
1291.659, 37.58008
1292.729, 52.86597
1293.798, 42.20459
1294.868, 72.73389
1295.937, 75.22388
1297.006, 78.18848
1298.075, 66.05664
1299.143, 39.44824
1300.212, 92.42651
1301.280, 48.29443
1302.348, 104.5000
1303.416, 45.86865
1304.484, 88.73340
1305.552, 88.16626
1306.620, 133.3926
1307.687, 96.57056
1308.754, 71.77954
1309.821, 65.84570
1310.888, 63.11157
1311.955, 56.72900
1313.021, 96.18872
1314.088, 78.21069
1315.154, 82.42358
1316.220, 131.9155
1317.286, 60.31323
1318.352, 76.05518
1319.417, 28.54736
1320.483, 55.60986
1321.548, 53.99756
1322.613, 103.0957
1323.678, 49.17334
1324.743, 49.64062
1325.807, 113.2358
1326.872, 59.35889
1327.936, 83.49414
1329.000, 93.97534
1330.064, 81.15649
1331.128, 53.39990
1332.191, 34.37329
1333.255, 73.51562
1334.318, 138.8491
1335.381, 117.1665
1336.444, 115.4749
1337.507, 42.55688
1338.569, 42.69434
1339.632, 69.67822
1340.694, 69.43408
1341.756, 66.73340
1342.818, 52.21680
1343.880, 36.20264
1344.941, 91.11401
1346.003, 45.02148
1347.064, 96.03101
1348.125, 73.00977
1349.186, 54.91187
1350.247, 36.91357
1351.308, 84.76514
1352.368, 69.79541
1353.428, 62.85278
1354.489, 36.91235
1355.549, 61.83472
1356.608, 78.84473
1357.668, 50.83960
1358.727, 44.88208
1359.787, 77.90991
1360.846, 12.72754
1361.905, 23.89209
1362.964, 53.09106
1364.022, 76.02344
1365.081, 90.80420
1366.139, 71.80396
1367.197, 50.59497
1368.255, 59.35889
1369.313, 49.55273
1370.371, 59.45898
1371.428, 21.63257
1372.486, 19.04199
1373.543, 7.866699
1374.600, 37.74072
1375.657, 7.533203
1376.713, 36.22241
1377.770, 73.49097
1378.826, 0.7106930
1379.882, 12.00659
1380.938, 40.76001
1381.994, 45.47388
1383.050, 48.11255
1384.106, 9.629150
1385.161, 34.23486
1386.216, 70.36914
1387.271, 1.927979
1388.326, 62.22607
1389.381, 5.018066
1390.435, 69.56470
1391.490, 105.3074
1392.544, 51.94995
1393.598, 33.60059
1394.652, 32.35278
1395.705, 18.92944
1396.759, 24.93555
1397.812, 30.64868
1398.866, 38.60278
1399.919, 29.22119
1400.972, 28.65259
1402.024, 24.86670
1403.077, 45.51514
1404.129, 5.952148
1405.181, 7.651611
1406.233, 30.68701
1407.285, 37.95264
1408.337, 4.241943
1409.389, 23.16650
1410.440, 50.16187
1411.491, 9.530518
1412.542, 40.88428
1413.593, 48.14429
1414.644, 165.6467
1415.695, 100.9194
1416.745, 122.2078
1417.795, 15.23145
1418.845, 76.43481
1419.895, 34.67407
1420.945, 4.855225
1421.995, 36.07568
1423.044, 4.500000
1424.093, 7.465820
1425.142, 12.36597
1426.191, 1.526855
1427.240, 1.023682
1428.289, 31.90869
1429.337, 10.00146
1430.385, 31.02905
1431.433, 32.09326
1432.481, 96.14380
1433.529, 74.18140
1434.577, 20.20581
1435.624, 53.21729
1436.672, 10.66626
1437.719, 8.316162
1438.766, 45.28052
1439.812, 22.75757
1440.859, 53.30933
1441.905, 8.747314
1442.952, 47.68262
1443.998, 7.649170
1445.044, 5.421631
1446.090, 31.94580
1447.135, 14.47510
1448.181, 34.26685
1449.226, 30.97925
1450.271, 13.23193
1451.316, 14.55469
1452.361, 25.30811
1453.405, 23.95752
1454.450, 42.70947
1455.494, 31.36890
1456.538, 33.02368
1457.582, 3.260254
1458.626, 60.29370
1459.670, 14.91455
1460.713, 33.60205
1461.757, 22.12549
1462.800, 63.79736
1463.843, 19.38721
1464.886, 28.00439
1465.928, 13.48608
1466.971, 14.89307
1468.013, 100.3015
1469.055, 111.9414
1470.097, 86.51318
1471.139, 3.052490
1472.181, 67.43115
1473.222, 60.35669
1474.263, 74.34204
1475.305, 32.74194
1476.346, 61.10620
1477.386, 69.37939
1478.427, 89.37842
1479.468, 12.71338
1480.508, 83.27563
1481.548, 55.25000
1482.588, 106.6812
1483.628, 71.80371
1484.668, 86.77808
1485.707, 149.8877
1486.747, 6.912109
1487.786, 107.4199
1488.825, 54.76733
1489.864, 55.76562
1490.902, 22.59375
1491.941, 57.34717
1492.979, 75.39453
1494.017, 40.71826
1495.055, 74.68555
1496.093, 20.78833
1497.131, 8.856934
1498.168, 88.02222
1499.206, 80.78052
1500.243, 41.53369
1501.280, 63.93188
1502.317, 5.883057
1503.354, 90.73853
1504.390, 66.51367
1505.426, 128.8376
1506.463, 54.07251
1507.499, 27.31812
1508.535, 84.72998
1509.570, 60.02173
1510.606, 83.47900
1511.641, 66.83521
1512.676, 88.97852
1513.711, 34.27612
1514.746, 50.60205
1515.781, 37.62622
1516.816, 65.51147
1517.850, 54.54834
1518.884, 20.61230
1519.918, 36.25342
1520.952, 37.61597
1521.986, 74.92065
1523.019, 59.02539
1524.053, 35.65552
1525.086, 73.75781
1526.119, 40.55933
1527.152, 55.36719
1528.185, 63.29712
1529.217, 30.95630
1530.250, 89.60376
1531.282, 84.62646
1532.314, 72.28003
1533.346, 13.61060
1534.377, 65.13403
1535.409, 66.61279
1536.440, 97.66235
1537.472, 58.63721
1538.503, 81.91968
1539.534, 36.49805
1540.564, 88.70410
1541.595, 69.92212
1542.625, 34.63770
1543.656, 50.24170
1544.686, 66.23340
1545.716, 63.25000
1546.745, 93.98975
1547.775, 73.60425
1548.804, 87.25562
1549.834, 62.09546
1550.863, 150.4587
1551.892, 120.2214
1552.920, 200.9441
1553.949, 333.8394
1554.977, 293.8374
1556.006, 176.7363
1557.034, 71.59302
1558.062, 103.5820
1559.089, 43.65137
1560.117, 7.787354
1561.144, 69.00342
1562.172, 45.38965
1563.199, 53.95142
1564.226, 9.675781
1565.252, 2.377197
1566.279, 28.74487
1567.305, 20.46729
1568.332, 27.07788
1569.358, 18.90088
1570.384, 0.0000000E+00
##END=



