##NAMES=Brookite
##RRUFFID=R050591
##IDEAL CHEMISTRY=TiO_2_
##LOCALITY=Taftan, near Dalbandi, Baluchistan, Pakistan
##OWNER=RRUFF
##SOURCE=Wayne Thompson
##DESCRIPTION=Yellowish-brown to reddish-brown thin tabular crystal
##STATUS=The identification of this mineral has been confirmed by X-ray diffraction and chemical analysis
##URL=rruff.info/R050591
##MEASURED CHEMISTRY=Ti_1.00_O_2_
##PIN_ID=L01445
##ORIENTATION=Laser parallel to a* (1 0 0). Fiducial mark perpendicular to laser is parallel to b [0 1 0]
51.43100, 0.0000000E+00
52.67100, 17.33319
53.91000, 33.80939
55.14900, 64.95251
56.38700, 67.17853
57.62600, 58.50867
58.86400, 126.4397
60.10300, 106.5108
61.34100, 86.08563
62.57900, 40.90253
63.81700, 21.84918
65.05400, 44.19916
66.29200, 21.39050
67.52900, 37.87305
68.76700, 4.215576
70.00400, 26.75201
71.24100, 58.62360
72.47700, 81.72229
73.71400, 131.9851
74.95100, 150.4579
76.18700, 200.9282
77.42300, 286.6185
78.65900, 311.1230
79.89500, 373.4763
81.13100, 461.6156
82.36700, 468.4861
83.60200, 544.0413
84.83700, 594.2423
86.07200, 611.0548
87.30800, 655.4473
88.54200, 733.3907
89.77700, 762.8467
91.01200, 816.7712
92.24600, 893.1252
93.48000, 954.8738
94.71400, 958.0068
95.94800, 1027.711
97.18200, 1092.217
98.41600, 1101.950
99.64900, 1205.939
100.8830, 1217.185
102.1160, 1372.680
103.3490, 1498.416
104.5820, 1608.385
105.8150, 1744.582
107.0470, 1951.000
108.2800, 2174.634
109.5120, 2459.479
110.7440, 2547.531
111.9760, 2962.784
113.2080, 3409.236
114.4400, 4174.895
115.6710, 5215.769
116.9030, 6517.855
118.1340, 8129.148
119.3650, 9530.641
120.5960, 10004.33
121.8270, 11469.22
123.0580, 13427.29
124.2880, 15851.54
125.5190, 18107.95
126.7490, 20180.39
127.9790, 22376.86
129.2090, 23969.35
130.4390, 24592.85
131.6680, 23937.39
132.8980, 22194.91
134.1270, 20468.44
135.3560, 19838.04
136.5850, 19983.73
137.8140, 20373.11
139.0430, 21213.54
140.2710, 22229.36
141.5000, 24499.67
142.7280, 27596.41
143.9560, 31144.58
145.1840, 34560.21
146.4120, 38037.23
147.6390, 41703.49
148.8670, 45551.86
150.0940, 50099.30
151.3210, 54364.84
152.5490, 57939.45
153.7750, 60535.16
155.0020, 60985.95
156.2290, 58901.82
157.4550, 54199.80
158.6810, 46661.86
159.9080, 38954.00
161.1340, 30877.23
162.3590, 24535.55
163.5850, 19304.96
164.8110, 15491.46
166.0360, 12253.04
167.2610, 10057.71
168.4860, 8274.475
169.7110, 6846.321
170.9360, 5755.247
172.1610, 4882.255
173.3850, 4132.357
174.6100, 3628.642
175.8340, 3116.198
177.0580, 2717.048
178.2820, 2394.098
179.5050, 2025.292
180.7290, 1895.567
181.9520, 1745.908
183.1760, 1717.315
184.3990, 1760.789
185.6220, 1807.330
186.8450, 1789.937
188.0670, 1710.610
189.2900, 1867.351
190.5120, 1970.159
191.7340, 2261.037
192.9560, 2547.986
194.1780, 2932.000
195.4000, 3208.079
196.6220, 3323.222
197.8430, 3094.430
199.0640, 2572.427
200.2860, 2044.306
201.5070, 1588.053
202.7270, 1418.666
203.9480, 1442.149
205.1690, 1557.507
206.3890, 1695.617
207.6090, 1654.625
208.8290, 1685.992
210.0490, 1807.636
211.2690, 2056.144
212.4890, 2354.760
213.7080, 2537.719
214.9280, 2837.452
216.1470, 2894.141
217.3660, 2570.993
218.5850, 1951.001
219.8030, 1316.159
221.0220, 701.4617
222.2400, 183.9038
223.4590, 27.52026
224.6770, 205.8176
225.8950, 265.0200
227.1120, 294.6558
228.3300, 199.0354
229.5480, 121.5413
230.7650, 69.54565
231.9820, 346.7964
233.1990, 840.9766
234.4160, 1483.824
235.6330, 2439.316
236.8490, 3621.043
238.0660, 4743.015
239.2820, 5998.796
240.4980, 6829.122
241.7140, 8174.629
242.9300, 9817.608
244.1460, 11799.75
245.3610, 14095.97
246.5770, 16197.26
247.7920, 17680.63
249.0070, 18078.06
250.2220, 17097.57
251.4370, 14627.14
252.6510, 11410.78
253.8660, 8604.490
255.0800, 6672.266
256.2940, 5265.106
257.5080, 4205.015
258.7220, 3618.985
259.9360, 2997.018
261.1490, 2631.116
262.3630, 2428.274
263.5760, 2236.494
264.7890, 1986.773
266.0020, 1874.112
267.2150, 1813.510
268.4270, 1674.965
269.6400, 1612.477
270.8520, 1526.046
272.0640, 1567.671
273.2760, 1545.352
274.4880, 1472.089
275.7000, 1455.883
276.9120, 1571.732
278.1230, 1567.638
279.3340, 1554.601
280.5450, 1654.620
281.7560, 1625.696
282.9670, 1679.828
284.1780, 1676.012
285.3880, 1743.132
286.5980, 1734.181
287.8090, 1840.264
289.0190, 1840.403
290.2290, 1869.599
291.4380, 1941.848
292.6480, 2015.148
293.8570, 2163.156
295.0670, 2325.164
296.2760, 2574.952
297.4850, 2901.029
298.6930, 3310.199
299.9020, 3860.122
301.1110, 4246.807
302.3190, 5124.490
303.5270, 5662.389
304.7350, 6632.911
305.9430, 7736.798
307.1510, 8973.678
308.3580, 10176.60
309.5660, 11784.57
310.7730, 13333.59
311.9800, 14809.65
313.1870, 16130.75
314.3940, 17638.90
315.6010, 18919.10
316.8070, 20003.33
318.0130, 20906.61
319.2200, 21862.94
320.4260, 21641.30
321.6310, 21367.72
322.8370, 20529.17
324.0430, 19130.66
325.2480, 17291.18
326.4540, 15376.76
327.6590, 13273.36
328.8640, 11255.01
330.0680, 9546.213
331.2730, 8000.938
332.4780, 6727.701
333.6820, 5540.503
334.8860, 4591.345
336.0900, 3784.224
337.2940, 3249.142
338.4980, 2627.097
339.7010, 2191.091
340.9050, 1823.122
342.1080, 1457.192
343.3110, 1185.114
344.5140, 984.4609
345.7170, 770.6775
346.9200, 654.9500
348.1220, 501.0007
349.3240, 344.6650
350.5270, 293.1091
351.7290, 219.6128
352.9310, 164.1763
354.1320, 48.79785
355.3340, 136.4724
356.5350, 77.20508
357.7370, 156.0081
358.9380, 232.8721
360.1390, 227.7988
361.3400, 340.7788
362.5400, 354.8118
363.7410, 411.8970
364.9410, 385.0342
366.1410, 439.2224
367.3410, 380.4614
368.5410, 381.3818
369.7410, 207.2195
370.9400, 118.2056
372.1400, 44.73853
373.3390, 56.00610
374.5380, 125.5242
375.7370, 163.0542
376.9360, 159.6252
378.1350, 188.2354
379.3330, 234.8982
380.5310, 200.6348
381.7300, 203.4307
382.9280, 198.2869
384.1260, 133.2012
385.3230, 78.14380
386.5210, 6.457031
387.7180, 155.9897
388.9160, 212.1172
390.1130, 353.2927
391.3100, 554.5156
392.5060, 668.7861
393.7030, 700.1038
394.9000, 994.4695
396.0960, 1245.882
397.2920, 1450.342
398.4880, 1778.849
399.6840, 2075.404
400.8800, 2491.005
402.0750, 2849.654
403.2710, 3351.349
404.4660, 4014.092
405.6610, 4464.881
406.8560, 5018.717
408.0510, 5560.601
409.2450, 6085.531
410.4400, 6515.508
411.6340, 6798.533
412.8280, 6877.604
414.0220, 7005.723
415.2160, 6728.888
416.4100, 6389.101
417.6030, 5816.360
418.7970, 5473.667
419.9900, 4780.021
421.1830, 4151.422
422.3760, 3569.872
423.5690, 2896.366
424.7610, 2506.910
425.9540, 2029.500
427.1460, 1738.138
428.3380, 1340.823
429.5300, 1051.556
430.7220, 834.3372
431.9140, 597.1675
433.1050, 418.0081
434.2970, 206.9734
435.4880, 131.9495
436.6790, 11.02612
437.8700, 89.97217
439.0610, 84.92163
440.2510, 165.8721
441.4420, 203.8596
442.6320, 198.9021
443.8220, 138.9961
445.0120, 100.1147
446.2020, 64.23950
447.3910, 56.35596
448.5810, 23.45947
449.7700, 67.46338
450.9600, 175.4353
452.1490, 174.4561
453.3370, 212.5259
454.5260, 284.6453
455.7150, 269.8132
456.9030, 392.0303
458.0910, 278.2966
459.2800, 328.6121
460.4670, 292.9773
461.6550, 238.3916
462.8430, 259.9927
464.0300, 236.3684
465.2180, 212.9314
466.4050, 120.5437
467.5920, 18.20557
468.7790, 118.9150
469.9650, 23.67456
471.1520, 21.48364
472.3380, 1.657715
473.5250, 141.2422
474.7110, 137.1921
475.8970, 197.1924
477.0820, 263.2427
478.2680, 259.3433
479.4540, 386.4944
480.6390, 476.6956
481.8240, 600.9473
483.0090, 822.2498
484.1940, 1053.603
485.3780, 1272.007
486.5630, 1520.461
487.7470, 1835.966
488.9320, 2248.521
490.1160, 2678.404
491.3000, 3206.785
492.4830, 3731.492
493.6670, 4303.250
494.8500, 4938.059
496.0340, 5434.918
497.2170, 5961.422
498.4000, 6507.382
499.5820, 6828.394
500.7650, 6996.457
501.9480, 7255.569
503.1300, 7196.731
504.3120, 6926.945
505.4940, 6702.209
506.6760, 5838.521
507.8580, 5400.883
509.0390, 4643.296
510.2210, 3978.760
511.4020, 3354.281
512.5830, 2917.884
513.7640, 2528.592
514.9450, 2109.232
516.1250, 1809.656
517.3060, 1619.649
518.4860, 1436.637
519.6660, 1286.850
520.8460, 1274.559
522.0260, 1296.775
523.2060, 1265.904
524.3850, 1326.812
525.5650, 1315.299
526.7440, 1465.280
527.9230, 1531.221
529.1020, 1649.830
530.2810, 1688.407
531.4590, 1997.041
532.6380, 2305.734
533.8160, 2482.487
534.9940, 2684.302
536.1720, 2908.187
537.3500, 3175.138
538.5270, 3317.145
539.7050, 3578.207
540.8820, 3723.329
542.0590, 3890.508
543.2360, 3836.746
544.4130, 3997.050
545.5900, 3958.415
546.7660, 3856.843
547.9430, 3807.329
549.1190, 3625.884
550.2950, 3491.518
551.4710, 3064.220
552.6470, 2737.997
553.8220, 2556.829
554.9980, 2261.729
556.1730, 2011.694
557.3480, 1791.718
558.5230, 1413.799
559.6980, 1212.953
560.8730, 1124.187
562.0470, 870.4897
563.2220, 807.8462
564.3960, 589.2744
565.5700, 604.7661
566.7440, 302.3311
567.9170, 311.9727
569.0910, 203.6741
570.2640, 233.4307
571.4380, 175.2415
572.6110, 49.10522
573.7840, 108.0349
574.9570, 83.02051
576.1290, 83.06323
577.3020, 115.1716
578.4740, 74.68140
579.6460, 147.3079
580.8180, 124.2644
581.9900, 139.0347
583.1620, 116.8154
584.3330, 131.9458
585.5040, 141.4165
586.6760, 138.9941
587.8470, 197.4609
589.0180, 156.4111
590.1880, 227.1016
591.3590, 142.9019
592.5290, 322.7605
593.7000, 408.6768
594.8700, 327.6497
596.0400, 411.6790
597.2090, 511.7673
598.3790, 549.9155
599.5490, 756.1262
600.7180, 826.3931
601.8870, 927.7292
603.0560, 1239.122
604.2250, 1320.574
605.3940, 1539.081
606.5620, 1585.645
607.7300, 1919.263
608.8990, 2155.937
610.0670, 2358.667
611.2350, 2559.455
612.4020, 2931.305
613.5700, 3172.693
614.7370, 3521.663
615.9050, 3906.688
617.0720, 4278.764
618.2390, 4700.896
619.4060, 5158.083
620.5720, 5592.328
621.7390, 6117.624
622.9050, 6717.973
624.0710, 7341.375
625.2370, 7925.836
626.4030, 8474.350
627.5690, 9131.912
628.7340, 9908.526
629.9000, 10547.19
631.0650, 11041.91
632.2300, 11733.68
633.3950, 11992.50
634.5600, 12643.51
635.7240, 12965.49
636.8890, 13129.46
638.0530, 13235.49
639.2170, 13223.56
640.3810, 13125.75
641.5450, 13036.08
642.7080, 12694.42
643.8720, 12421.68
645.0350, 12074.98
646.1980, 11487.33
647.3610, 11082.73
648.5240, 10313.18
649.6870, 9777.021
650.8490, 9199.464
652.0120, 8665.446
653.1740, 8098.408
654.3360, 7678.066
655.4980, 7122.838
656.6600, 6566.734
657.8210, 6255.629
658.9830, 5804.594
660.1440, 5352.985
661.3050, 5013.339
662.4660, 4618.071
663.6270, 4308.644
664.7870, 3941.034
665.9480, 3681.977
667.1080, 3384.675
668.2680, 3188.402
669.4280, 3012.421
670.5880, 2842.152
671.7480, 2703.542
672.9070, 2520.740
674.0670, 2299.178
675.2260, 2191.673
676.3850, 2033.634
677.5440, 1890.606
678.7030, 1879.662
679.8610, 1675.762
681.0200, 1572.910
682.1780, 1586.863
683.3360, 1531.325
684.4940, 1440.454
685.6520, 1291.599
686.8090, 1262.649
687.9670, 1185.033
689.1240, 1115.007
690.2810, 1028.027
691.4380, 933.2056
692.5950, 984.8496
693.7520, 945.8181
694.9080, 870.0474
696.0650, 727.3625
697.2210, 772.4873
698.3770, 727.0664
699.5330, 707.8752
700.6880, 664.8257
701.8440, 697.3984
702.9990, 631.1101
704.1550, 603.0366
705.3100, 553.1855
706.4650, 512.3164
707.6190, 523.4199
708.7740, 458.6335
709.9290, 468.6028
711.0830, 411.5396
712.2370, 466.1946
713.3910, 455.8145
714.5450, 340.6296
715.6980, 435.6375
716.8520, 372.6440
718.0050, 321.5762
719.1580, 288.1938
720.3110, 262.8005
721.4640, 284.7378
722.6170, 251.0757
723.7700, 260.3030
724.9220, 279.9990
726.0740, 195.5583
727.2260, 284.9236
728.3780, 224.1951
729.5300, 218.0425
730.6810, 167.3142
731.8330, 155.2510
732.9840, 127.3572
734.1350, 120.9360
735.2860, 139.7000
736.4370, 137.6191
737.5880, 156.0303
738.7380, 191.1599
739.8880, 149.4260
741.0390, 128.6841
742.1890, 142.4485
743.3380, 109.6995
744.4880, 41.94556
745.6380, 98.15552
746.7870, 92.29541
747.9360, 100.9187
749.0850, 159.0303
750.2340, 122.6001
751.3830, 148.9600
752.5310, 101.8059
753.6800, 167.3411
754.8280, 105.1904
755.9760, 86.91870
757.1240, 63.53247
758.2720, 69.50781
759.4190, 124.8770
760.5670, 39.88916
761.7140, 83.63721
762.8610, 14.81006
764.0080, 49.58594
765.1550, 107.4070
766.3020, 58.62866
767.4480, 87.51074
768.5950, 37.57959
769.7410, 85.07544
770.8870, 43.20386
772.0330, 11.23438
773.1780, 4.644531
774.3240, 26.24268
775.4690, 45.34888
776.6140, 27.00781
777.7590, 15.32642
778.9040, 22.35986
780.0490, 8.847656
781.1940, 17.24097
782.3380, 45.06909
783.4820, 10.01245
784.6260, 26.75879
785.7700, 16.36792
786.9140, 17.24927
788.0580, 31.48438
789.2010, 18.09302
790.3450, 55.71875
791.4880, 22.50830
792.6310, 30.65430
793.7730, 6.481201
794.9160, 2.093994
796.0590, 0.9646000
797.2010, 49.59131
798.3430, 2.464844
799.4850, 13.57373
800.6270, 1.377930
801.7690, 76.96826
802.9100, 62.65259
804.0520, 3.412354
805.1930, 20.26758
806.3340, 6.361084
807.4750, 2.645020
808.6160, 9.350830
809.7560, 16.13599
810.8970, 12.21973
812.0370, 57.46533
813.1770, 29.67798
814.3170, 13.15918
815.4570, 10.88403
816.5960, 10.31006
817.7360, 13.35938
818.8750, 4.741455
820.0140, 28.97046
821.1530, 12.06543
822.2920, 13.23633
823.4310, 0.4162600
824.5690, 38.81812
825.7070, 79.28345
826.8460, 29.80078
827.9840, 63.42603
829.1220, 20.87231
830.2590, 24.92236
831.3970, 27.77539
832.5340, 6.220703
833.6710, 12.18066
834.8080, 44.89209
835.9450, 78.99438
837.0820, 32.06494
838.2190, 66.69702
839.3550, 41.48999
840.4910, 11.73535
841.6270, 45.83203
842.7630, 60.21704
843.8990, 5.410156
845.0350, 29.87305
846.1700, 49.23315
847.3060, 56.39771
848.4410, 14.77759
849.5760, 24.46289
850.7100, 20.82495
851.8450, 17.01392
852.9800, 19.30103
854.1140, 13.47559
855.2480, 9.744629
856.3820, 61.86890
857.5160, 61.93750
858.6500, 67.65210
859.7830, 86.82666
860.9170, 55.63916
862.0500, 24.47803
863.1830, 32.28467
864.3160, 37.96802
865.4480, 61.60864
866.5810, 42.21289
867.7130, 61.18799
868.8460, 53.80054
869.9780, 71.76416
871.1100, 40.21228
872.2410, 28.66284
873.3730, 18.00281
874.5050, 63.28979
875.6360, 12.46558
876.7670, 59.72925
877.8980, 39.94116
879.0290, 64.02466
880.1590, 66.21997
881.2900, 70.21655
882.4200, 76.17188
883.5500, 52.08411
884.6800, 36.09167
885.8100, 24.99182
886.9400, 69.74866
888.0690, 1.604126
889.1990, 63.24817
890.3280, 111.8475
891.4570, 56.40479
892.5860, 63.04480
893.7140, 48.56885
894.8430, 79.02466
895.9710, 106.3972
897.1000, 60.85278
898.2280, 45.13330
899.3560, 61.36072
900.4830, 128.5382
901.6110, 95.73840
902.7380, 123.8314
903.8660, 109.8822
904.9930, 38.94019
906.1200, 106.8894
907.2460, 77.79358
908.3730, 76.50500
909.5000, 128.2561
910.6260, 111.0408
911.7520, 156.7581
912.8780, 156.4669
914.0040, 153.8914
915.1290, 141.4835
916.2550, 113.9210
917.3800, 137.4254
918.5050, 125.9985
919.6300, 147.4600
920.7550, 163.8340
921.8800, 191.1656
923.0040, 144.0996
924.1290, 186.4370
925.2530, 187.2734
926.3770, 210.1053
927.5010, 127.2338
928.6250, 216.2477
929.7480, 176.1633
930.8720, 222.1171
931.9950, 176.0516
933.1180, 239.6012
934.2410, 212.4995
935.3640, 224.3491
936.4860, 170.1067
937.6090, 164.8755
938.7310, 173.1400
939.8530, 182.7043
940.9750, 227.2458
942.0970, 198.5228
943.2180, 195.0903
944.3400, 162.9746
945.4610, 202.3591
946.5820, 245.8757
947.7030, 210.6443
948.8240, 187.9456
949.9450, 210.2306
951.0650, 186.0977
952.1860, 210.7529
953.3060, 170.8453
954.4260, 172.1975
955.5460, 153.9633
956.6650, 157.7657
957.7850, 153.1764
958.9040, 175.4376
960.0230, 175.2474
961.1420, 166.4606
962.2610, 176.7472
963.3800, 174.6436
964.4990, 190.1641
965.6170, 190.3547
966.7350, 213.3882
967.8530, 231.2122
968.9710, 212.4010
970.0890, 200.2225
971.2070, 167.5531
972.3240, 190.7007
973.4410, 172.2152
974.5580, 167.2661
975.6750, 127.7621
976.7920, 166.6650
977.9090, 140.6666
979.0250, 168.5902
980.1410, 198.4812
981.2580, 131.6292
982.3740, 150.6803
983.4890, 199.0507
984.6050, 143.3918
985.7200, 186.5237
986.8360, 127.4489
987.9510, 138.3604
989.0660, 122.3411
990.1810, 132.6472
991.2950, 137.3511
992.4100, 175.9958
993.5240, 134.6541
994.6390, 196.4569
995.7530, 156.8116
996.8660, 152.3145
997.9800, 191.0146
999.0940, 196.0382
1000.207, 168.3656
1001.320, 183.3109
1002.433, 193.3998
1003.546, 171.3303
1004.659, 163.5464
1005.772, 151.0156
1006.884, 178.0487
1007.996, 183.7375
1009.108, 186.6814
1010.220, 153.4993
1011.332, 138.2062
1012.444, 185.3208
1013.555, 118.0132
1014.666, 182.7874
1015.777, 154.9839
1016.888, 170.7788
1017.999, 117.9067
1019.110, 129.5356
1020.220, 162.6777
1021.331, 113.0339
1022.441, 154.8546
1023.551, 143.5015
1024.661, 150.2736
1025.770, 110.2722
1026.880, 125.2329
1027.989, 127.9070
1029.098, 157.2804
1030.207, 108.9646
1031.316, 148.7566
1032.425, 183.1674
1033.533, 195.8682
1034.642, 118.6909
1035.750, 150.4348
1036.858, 139.9834
1037.966, 119.2411
1039.073, 143.0459
1040.181, 159.2789
1041.288, 150.9653
1042.396, 143.6908
1043.503, 120.0344
1044.610, 136.0947
1045.716, 115.6367
1046.823, 115.2424
1047.929, 171.7251
1049.036, 118.1963
1050.142, 128.2190
1051.248, 92.50085
1052.353, 107.7833
1053.459, 118.9767
1054.564, 118.2839
1055.670, 130.8445
1056.775, 147.0436
1057.880, 105.5294
1058.985, 110.9440
1060.089, 112.4709
1061.194, 126.3467
1062.298, 115.5706
1063.402, 120.4539
1064.506, 110.2335
1065.610, 124.5894
1066.713, 106.0728
1067.817, 119.5092
1068.920, 127.0382
1070.023, 151.1503
1071.126, 110.1787
1072.229, 100.3811
1073.332, 117.6207
1074.435, 100.0444
1075.537, 98.35425
1076.639, 147.6659
1077.741, 123.7014
1078.843, 129.5397
1079.945, 159.7758
1081.046, 117.5483
1082.148, 122.7970
1083.249, 134.0820
1084.350, 54.19666
1085.451, 117.5099
1086.551, 78.52014
1087.652, 121.5082
1088.752, 76.36707
1089.853, 91.24707
1090.953, 71.09290
1092.053, 95.18359
1093.152, 115.3990
1094.252, 101.4330
1095.351, 152.5707
1096.451, 78.68066
1097.550, 86.31140
1098.649, 58.48389
1099.748, 86.53247
1100.846, 41.82764
1101.945, 25.11707
1103.043, 77.34717
1104.141, 118.4797
1105.239, 110.8387
1106.337, 72.01331
1107.434, 96.17139
1108.532, 85.13086
1109.629, 58.32068
1110.726, 101.4349
1111.823, 57.66711
1112.920, 50.96033
1114.017, 129.0291
1115.113, 65.23047
1116.210, 135.5100
1117.306, 87.68750
1118.402, 88.96082
1119.498, 156.0598
1120.593, 142.2709
1121.689, 121.3324
1122.784, 181.4424
1123.879, 128.5662
1124.974, 138.8336
1126.069, 100.9944
1127.164, 117.3098
1128.259, 102.5900
1129.353, 119.7738
1130.447, 16.04602
1131.541, 41.28857
1132.635, 26.52283
1133.729, 81.75586
1134.822, 59.98474
1135.916, 50.21021
1137.009, 78.41821
1138.102, 78.57654
1139.195, 24.79626
1140.288, 26.01733
1141.380, 18.24475
1142.473, 41.50781
1143.565, 56.69861
1144.657, 35.92200
1145.749, 11.98706
1146.841, 9.795776
1147.932, 21.41394
1149.024, 63.62036
1150.115, 56.68408
1151.206, 57.80518
1152.297, 51.01794
1153.388, 73.15356
1154.479, 8.624390
1155.569, 64.59277
1156.659, 25.81531
1157.750, 99.89917
1158.839, 32.05139
1159.929, 39.77563
1161.019, 8.424316
1162.108, 39.49841
1163.198, 22.69934
1164.287, 41.90259
1165.376, 0.1074220
1166.465, 10.75549
1167.553, 33.43970
1168.642, 83.63281
1169.730, 63.77344
1170.818, 29.97144
1171.906, 57.19849
1172.994, 27.40161
1174.082, 40.60229
1175.170, 54.77979
1176.257, 33.97974
1177.344, 10.22205
1178.431, 27.38562
1179.518, 0.3703610
1180.605, 26.81091
1181.691, 20.00464
1182.778, 2.911377
1183.864, 59.24316
1184.950, 44.43591
1186.036, 30.66504
1187.122, 17.85449
1188.207, 30.08203
1189.292, 43.23279
1190.378, 41.40796
1191.463, 45.59375
1192.548, 15.21826
1193.632, 34.96167
1194.717, 18.85938
1195.801, 7.309082
1196.886, 63.47791
1197.970, 32.63257
1199.054, 16.79822
1200.137, 36.96155
1201.221, 58.12451
1202.305, 20.28809
1203.388, 25.43237
1204.471, 22.40576
1205.554, 22.72913
1206.637, 13.85901
1207.719, 20.00769
1208.802, 9.808472
1209.884, 21.33521
1210.966, 11.52295
1212.048, 15.61340
1213.130, 24.74902
1214.212, 53.88367
1215.293, 11.84192
1216.374, 30.06592
1217.456, 42.13184
1218.536, 33.26917
1219.617, 96.33472
1220.698, 50.71118
1221.778, 21.86169
1222.859, 0.9208980
1223.939, 62.34241
1225.019, 24.48438
1226.099, 80.72607
1227.178, 10.17175
1228.258, 73.01001
1229.337, 16.97217
1230.417, 27.15588
1231.496, 26.09888
1232.574, 55.33069
1233.653, 51.43005
1234.732, 6.559204
1235.810, 29.09766
1236.888, 61.81738
1237.966, 36.94385
1239.044, 58.10645
1240.122, 82.14185
1241.199, 46.26929
1242.277, 41.30603
1243.354, 30.34814
1244.431, 15.54028
1245.508, 124.6155
1246.585, 17.38489
1247.661, 72.50891
1248.738, 23.64453
1249.814, 7.766724
1250.890, 71.88770
1251.966, 75.00818
1253.042, 57.12817
1254.117, 34.24768
1255.193, 16.36572
1256.268, 15.64209
1257.343, 8.095581
1258.418, 27.23206
1259.493, 24.34485
1260.567, 43.22791
1261.642, 38.22437
1262.716, 40.16016
1263.790, 55.26819
1264.864, 61.34644
1265.938, 62.23706
1267.011, 65.02686
1268.085, 50.61328
1269.158, 57.54968
1270.231, 26.49243
1271.304, 15.40381
1272.377, 17.41309
1273.450, 47.48682
1274.522, 66.51904
1275.594, 50.44104
1276.666, 68.92249
1277.738, 37.85291
1278.810, 42.94531
1279.882, 50.06995
1280.953, 33.16345
1282.025, 11.30969
1283.096, 47.39807
1284.167, 30.94727
1285.238, 25.14026
1286.308, 32.14099
1287.379, 36.22437
1288.449, 34.65051
1289.519, 45.51636
1290.589, 44.26514
1291.659, 54.10107
1292.729, 45.04919
1293.798, 51.08350
1294.868, 45.91833
1295.937, 48.40515
1297.006, 42.90674
1298.075, 31.47314
1299.143, 35.54419
1300.212, 17.52637
1301.280, 23.59412
1302.348, 59.67981
1303.416, 34.70679
1304.484, 67.85718
1305.552, 5.882446
1306.620, 45.78186
1307.687, 13.47668
1308.754, 34.33228
1309.821, 64.30103
1310.888, 24.67004
1311.955, 23.46338
1313.021, 32.71082
1314.088, 16.09827
1315.154, 33.73950
1316.220, 15.76172
1317.286, 56.81506
1318.352, 67.85278
1319.417, 88.61694
1320.483, 92.23840
1321.548, 75.96863
1322.613, 90.03113
1323.678, 37.23279
1324.743, 46.27576
1325.807, 54.30725
1326.872, 43.37842
1327.936, 67.30640
1329.000, 67.31946
1330.064, 51.42883
1331.128, 30.41687
1332.191, 31.38428
1333.255, 57.36438
1334.318, 103.3219
1335.381, 64.24182
1336.444, 15.18250
1337.507, 69.74756
1338.569, 38.69385
1339.632, 47.19556
1340.694, 67.23120
1341.756, 37.25098
1342.818, 34.12292
1343.880, 3.063110
1344.941, 78.12671
1346.003, 27.14233
1347.064, 64.18481
1348.125, 3.721558
1349.186, 20.89246
1350.247, 7.046753
1351.308, 4.5288000E-02
1352.368, 78.96765
1353.428, 1.012329
1354.489, 62.09888
1355.549, 12.62280
1356.608, 39.71826
1357.668, 62.93262
1358.727, 55.94934
1359.787, 7.094238
1360.846, 32.79260
1361.905, 80.78210
1362.964, 13.65576
1364.022, 37.65747
1365.081, 46.73206
1366.139, 16.74036
1367.197, 64.15125
1368.255, 44.13306
1369.313, 30.23181
1370.371, 18.20459
1371.428, 10.52600
1372.486, 37.43469
1373.543, 11.57544
1374.600, 53.34717
1375.657, 23.31274
1376.713, 46.24377
1377.770, 27.10803
1378.826, 29.06470
1379.882, 57.01685
1380.938, 30.96643
1381.994, 29.91528
1383.050, 45.84009
1384.106, 8.282227
1385.161, 21.56018
1386.216, 71.48108
1387.271, 60.42627
1388.326, 45.35754
1389.381, 48.28748
1390.435, 40.21667
1391.490, 40.14478
1392.544, 33.74097
1393.598, 34.06409
1394.652, 22.96082
1395.705, 34.91028
1396.759, 37.51160
1397.812, 36.91602
1398.866, 31.66528
1399.919, 32.53442
1400.972, 17.42969
1402.024, 20.32263
1403.077, 72.23279
1404.129, 31.12378
1405.181, 73.00220
1406.233, 17.87805
1407.285, 26.75000
1408.337, 7.613403
1409.389, 33.45520
1410.440, 42.30627
1411.491, 3.223022
1412.542, 18.06201
1413.593, 29.90601
1414.644, 6.007080
1415.695, 81.85291
1416.745, 10.30481
1417.795, 29.57922
1418.845, 58.43823
1419.895, 28.26843
1420.945, 63.36584
1421.995, 56.91760
1423.044, 68.94189
1424.093, 80.75806
1425.142, 50.57056
1426.191, 61.37878
1427.240, 59.15417
1428.289, 2.952026
1429.337, 47.74988
1430.385, 9.542847
1431.433, 24.32422
1432.481, 70.02393
1433.529, 10.20447
1434.577, 28.51270
1435.624, 47.37158
1436.672, 4.879395
1437.719, 70.86194
1438.766, 0.3258060
1439.812, 130.4073
1440.859, 33.59631
1441.905, 10.34583
1442.952, 15.04431
1443.998, 60.73865
1445.044, 9.567993
1446.090, 43.91711
1447.135, 43.20129
1448.181, 17.20740
1449.226, 19.21960
1450.271, 1.230591
1451.316, 37.24146
1452.361, 14.25085
1453.405, 67.26465
1454.450, 40.28345
1455.494, 14.26685
1456.538, 23.29272
1457.582, 38.32031
1458.626, 53.24365
1459.670, 69.26123
1460.713, 36.00366
1461.757, 53.47644
1462.800, 36.53967
1463.843, 46.41431
1464.886, 32.34753
1465.928, 7.345459
1466.971, 19.87854
1468.013, 10.19556
1469.055, 26.78650
1470.097, 15.72046
1471.139, 33.69434
1472.181, 24.54346
1473.222, 13.69519
1474.263, 9.363281
1475.305, 36.59387
1476.346, 15.55078
1477.386, 31.50696
1478.427, 11.79944
1479.468, 12.71863
1480.508, 35.66736
1481.548, 10.61536
1482.588, 59.56287
1483.628, 22.48206
1484.668, 44.42737
1485.707, 9.627808
1486.747, 36.25244
1487.786, 37.14868
1488.825, 29.09326
1489.864, 15.95959
1490.902, 31.76953
1491.941, 1.453125
1492.979, 44.41870
1494.017, 9.651001
1495.055, 38.47754
1496.093, 0.6134030
1497.131, 36.30566
1498.168, 33.22339
1499.206, 34.14294
1500.243, 57.82568
1501.280, 68.63232
1502.317, 73.50842
1503.354, 65.09717
1504.390, 38.21045
1505.426, 44.73718
1506.463, 60.62952
1507.499, 29.21045
1508.535, 66.65149
1509.570, 66.53088
1510.606, 40.17017
1511.641, 28.71252
1512.676, 53.40454
1513.711, 55.07849
1514.746, 49.87939
1515.781, 49.64587
1516.816, 41.48230
1517.850, 34.32800
1518.884, 34.88745
1519.918, 29.26514
1520.952, 26.71826
1521.986, 28.66589
1523.019, 34.09827
1524.053, 32.59839
1525.086, 64.99902
1526.119, 44.43323
1527.152, 32.81152
1528.185, 74.29871
1529.217, 46.27307
1530.250, 42.71826
1531.282, 81.88977
1532.314, 37.02148
1533.346, 23.09631
1534.377, 59.32739
1535.409, 18.58594
1536.440, 47.93701
1537.472, 61.27478
1538.503, 0.3718260
1539.534, 28.80774
1540.564, 53.14417
1541.595, 23.29370
1542.625, 28.56970
1543.656, 67.80627
1544.686, 34.89905
1545.716, 44.81580
1546.745, 1.547852
1547.775, 74.60620
1548.804, 47.78870
1549.834, 77.83032
1550.863, 59.07263
1551.892, 50.33972
1552.920, 43.33496
1553.949, 97.20337
1554.977, 117.6221
1556.006, 101.6053
1557.034, 81.10791
1558.062, 50.19287
1559.089, 13.17285
1560.117, 66.08203
1561.144, 68.93115
1562.172, 17.68213
1563.199, 39.47449
1564.226, 1.653564
1565.252, 30.05750
1566.279, 32.77234
1567.305, 70.65906
1568.332, 5.888550
1569.358, 29.39880
1570.384, 0.0000000E+00
##END=



