##NAMES=Chloritoid
##RRUFFID=R060292
##IDEAL CHEMISTRY=Fe^2+^Al_2_OSiO_4_(OH)_2_
##LOCALITY=Pech, Kunar Province, Afghanistan
##OWNER=RRUFF
##SOURCE=Herb Obodda
##DESCRIPTION=Black tabular crystal
##STATUS=The identification of this mineral has been confirmed by X-ray diffraction and chemical analysis
##URL=rruff.info/R060292
##MEASURED CHEMISTRY=(Fe^2+^_1.55_Mg_0.43_Mn_0.02_)_Σ=2_(Al_3.93_Fe^3+^_0.07_)_Σ=4_Si_2.00_O_10_(OH)_4_
##PIN_ID=M00313
##ORIENTATION=Laser parallel to (1 0 1). Fiducial mark perpendicular to laser is parallel to b [0 1 0]
51.43100, 0.0000000E+00
52.67100, 1.730469
53.91000, 10.32971
55.14900, 18.48965
56.38700, 42.61432
57.62600, 138.8114
58.86400, 210.3202
60.10300, 195.9756
61.34100, 110.6090
62.57900, 14.97687
63.81700, 20.95941
65.05400, 18.49573
66.29200, 85.27631
67.52900, 33.98370
68.76700, 203.2870
70.00400, 35.33722
71.24100, 20.31146
72.47700, 101.1395
73.71400, 235.7585
74.95100, 140.1107
76.18700, 128.1436
77.42300, 111.8102
78.65900, 195.0687
79.89500, 427.8818
81.13100, 597.2164
82.36700, 545.0432
83.60200, 479.3394
84.83700, 427.0850
86.07200, 525.2612
87.30800, 579.8502
88.54200, 799.8342
89.77700, 1011.186
91.01200, 925.8818
92.24600, 923.9114
93.48000, 894.2587
94.71400, 892.9043
95.94800, 967.8304
97.18200, 1150.022
98.41600, 1211.466
99.64900, 1284.151
100.8830, 1475.068
102.1160, 1927.207
103.3490, 2527.561
104.5820, 3616.122
105.8150, 3833.823
107.0470, 4276.211
108.2800, 4614.987
109.5120, 4663.317
110.7440, 4986.828
111.9760, 5158.518
113.2080, 4838.398
114.4400, 3874.474
115.6710, 2929.744
116.9030, 2303.203
118.1340, 1669.845
119.3650, 1332.663
120.5960, 1358.653
121.8270, 1123.809
123.0580, 913.1270
124.2880, 814.6023
125.5190, 805.1980
126.7490, 833.8107
127.9790, 885.4441
129.2090, 894.1859
130.4390, 749.1016
131.6680, 699.1643
132.8980, 610.3563
134.1270, 603.6301
135.3560, 722.9521
136.5850, 761.3236
137.8140, 696.7485
139.0430, 595.2307
140.2710, 505.7729
141.5000, 464.3778
142.7280, 458.0476
143.9560, 443.7839
145.1840, 494.5886
146.4120, 493.4631
147.6390, 602.4077
148.8670, 695.4237
150.0940, 617.5120
151.3210, 498.6726
152.5490, 518.9059
153.7750, 411.2129
155.0020, 337.5933
156.2290, 363.0470
157.4550, 321.5745
158.6810, 388.1757
159.9080, 462.8501
161.1340, 514.5980
162.3590, 707.4192
163.5850, 590.3127
164.8110, 618.2793
166.0360, 609.3180
167.2610, 762.4285
168.4860, 773.6108
169.7110, 667.8843
170.9360, 640.2795
172.1610, 803.9071
173.3850, 707.3188
174.6100, 703.0789
175.8340, 666.2474
177.0580, 611.7227
178.2820, 535.2667
179.5050, 540.8630
180.7290, 574.5111
181.9520, 533.2109
183.1760, 586.9623
184.3990, 576.7651
185.6220, 663.6191
186.8450, 609.5234
188.0670, 615.4789
189.2900, 667.4844
190.5120, 697.5391
191.7340, 710.6436
192.9560, 837.7969
194.1780, 909.9985
195.4000, 875.2480
196.6220, 1013.546
197.8430, 1135.890
199.0640, 1242.875
200.2860, 1351.587
201.5070, 1209.488
202.7270, 1022.425
203.9480, 879.5054
205.1690, 878.4426
206.3890, 925.1967
207.6090, 979.3369
208.8290, 964.4915
210.0490, 1119.552
211.2690, 1065.013
212.4890, 1095.616
213.7080, 1063.248
214.9280, 1137.055
216.1470, 1089.493
217.3660, 1151.796
218.5850, 1101.206
219.8030, 1112.718
221.0220, 1154.329
222.2400, 1143.035
223.4590, 1129.835
224.6770, 1198.724
225.8950, 1216.699
227.1120, 1199.760
228.3300, 1380.904
229.5480, 1378.127
230.7650, 1506.429
231.9820, 1539.807
233.1990, 1663.259
234.4160, 1860.784
235.6330, 2087.380
236.8490, 2342.044
238.0660, 2811.775
239.2820, 3425.574
240.4980, 4182.436
241.7140, 4901.362
242.9300, 5635.351
244.1460, 6468.400
245.3610, 7675.510
246.5770, 8801.675
247.7920, 9368.902
249.0070, 9523.186
250.2220, 8670.522
251.4370, 7577.917
252.6510, 6537.365
253.8660, 5380.867
255.0800, 4653.421
256.2940, 4592.028
257.5080, 4137.687
258.7220, 3295.396
259.9360, 2815.156
261.1490, 2389.967
262.3630, 2333.825
263.5760, 2146.731
264.7890, 2049.685
266.0020, 2099.685
267.2150, 2201.731
268.4270, 2311.823
269.6400, 2673.959
270.8520, 2996.139
272.0640, 3520.363
273.2760, 4075.629
274.4880, 4788.939
275.7000, 5646.292
276.9120, 6529.688
278.1230, 7604.125
279.3340, 8048.604
280.5450, 8266.120
281.7560, 7682.680
282.9670, 6791.280
284.1780, 5722.920
285.3880, 4901.589
286.5980, 4207.952
287.8090, 3514.578
289.0190, 3117.279
290.2290, 2643.716
291.4380, 2364.541
292.6480, 2055.593
293.8570, 1920.974
295.0670, 1646.273
296.2760, 1560.621
297.4850, 1434.780
298.6930, 1441.459
299.9020, 1311.960
301.1110, 1271.142
302.3190, 1221.330
303.5270, 1223.550
304.7350, 1263.802
305.9430, 1249.086
307.1510, 1239.401
308.3580, 1345.748
309.5660, 1269.125
310.7730, 1313.532
311.9800, 1311.970
313.1870, 1288.439
314.3940, 1330.937
315.6010, 1298.463
316.8070, 1305.019
318.0130, 1365.602
319.2200, 1470.212
320.4260, 1579.847
321.6310, 1755.507
322.8370, 1969.190
324.0430, 2237.897
325.2480, 2531.627
326.4540, 2824.382
327.6590, 3141.157
328.8640, 3545.956
330.0680, 3596.778
331.2730, 3343.621
332.4780, 2902.487
333.6820, 2380.375
334.8860, 1897.284
336.0900, 1504.214
337.2940, 1275.165
338.4980, 1073.137
339.7010, 1082.130
340.9050, 1153.144
342.1080, 1169.177
343.3110, 1161.230
344.5140, 842.3203
345.7170, 513.4473
346.9200, 258.6106
348.1220, 90.81055
349.3240, 88.95435
350.5270, 103.7117
351.7290, 128.4673
352.9310, 104.2332
354.1320, 121.9980
355.3340, 104.7656
356.5350, 116.5273
357.7370, 27.29053
358.9380, 56.02295
360.1390, 10.73291
361.3400, 128.5959
362.5400, 126.9683
363.7410, 139.3889
364.9410, 123.8572
366.1410, 121.7563
367.3410, 113.6831
368.5410, 110.5737
369.7410, 91.23853
370.9400, 101.9490
372.1400, 93.70825
373.3390, 167.5076
374.5380, 172.3435
375.7370, 331.2075
376.9360, 405.0977
378.1350, 639.0125
379.3330, 793.9521
380.5310, 1044.916
381.7300, 1284.904
382.9280, 1527.915
384.1260, 1618.949
385.3230, 1618.007
386.5210, 1420.087
387.7180, 1234.189
388.9160, 1002.314
390.1130, 883.4600
391.3100, 742.6272
392.5060, 845.8159
393.7030, 726.0320
394.9000, 678.2812
396.0960, 619.5735
397.2920, 525.9124
398.4880, 328.2983
399.6840, 223.7397
400.8800, 134.2249
402.0750, 76.75562
403.2710, 61.32471
404.4660, 103.9194
405.6610, 75.54468
406.8560, 153.2131
408.0510, 240.9160
409.2450, 264.6433
410.4400, 476.3926
411.6340, 516.1594
412.8280, 528.9436
414.0220, 428.7444
415.2160, 428.5615
416.4100, 256.3940
417.6030, 216.2417
418.7970, 101.1038
419.9900, 141.9802
421.1830, 109.8706
422.3760, 111.7749
423.5690, 163.6924
424.7610, 116.6233
425.9540, 98.56689
427.1460, 77.52319
428.3380, 5.508057
429.5300, 2.460938
430.7220, 1.567139
431.9140, 95.59424
433.1050, 123.6638
434.2970, 145.7905
435.4880, 113.9858
436.6790, 135.2349
437.8700, 166.5481
439.0610, 148.9424
440.2510, 144.4092
441.4420, 65.94702
442.6320, 24.72510
443.8220, 36.10352
445.0120, 102.2905
446.2020, 147.6931
447.3910, 186.1042
448.5810, 252.5239
449.7700, 304.9514
450.9600, 442.3867
452.1490, 471.8293
453.3370, 422.2795
454.5260, 404.7368
455.7150, 294.2012
456.9030, 299.6721
458.0910, 334.8726
459.2800, 347.4294
460.4670, 494.1230
461.6550, 405.6191
462.8430, 532.4011
464.0300, 421.1282
465.2180, 638.1394
466.4050, 795.6567
467.5920, 948.1787
468.7790, 1039.706
469.9650, 1258.237
471.1520, 1436.773
472.3380, 1601.313
473.5250, 1662.857
474.7110, 1814.405
475.8970, 1799.957
477.0820, 1853.511
478.2680, 1848.069
479.4540, 1822.631
480.6390, 1762.195
481.8240, 1699.762
483.0090, 1660.331
484.1940, 1677.903
485.3780, 1683.477
486.5630, 1887.052
487.7470, 2009.630
488.9320, 2292.210
490.1160, 2679.790
491.3000, 3031.371
492.4830, 3482.005
493.6670, 4031.930
494.8500, 4772.665
496.0340, 5527.846
497.2170, 5701.141
498.4000, 5910.809
499.5820, 5638.851
500.7650, 5367.287
501.9480, 5406.110
503.1300, 5414.035
504.3120, 5625.501
505.4940, 6037.204
506.6760, 6575.948
507.8580, 7114.602
509.0390, 7438.639
510.2210, 7403.249
511.4020, 7154.336
512.5830, 6434.106
513.7640, 5862.682
514.9450, 5402.360
516.1250, 5235.436
517.3060, 5307.560
518.4860, 5602.460
519.6660, 6244.184
520.8460, 7042.909
522.0260, 8295.632
523.2060, 9418.354
524.3850, 10900.07
525.5650, 12016.79
526.7440, 13036.50
527.9230, 13419.21
529.1020, 13024.91
530.2810, 12208.60
531.4590, 11044.28
532.6380, 9835.954
533.8160, 8638.673
534.9940, 8033.777
536.1720, 7495.129
537.3500, 7332.925
538.5270, 7589.557
539.7050, 8357.527
540.8820, 9627.407
542.0590, 11701.56
543.2360, 14742.30
544.4130, 18049.26
545.5900, 22083.47
546.7660, 26685.76
547.9430, 32845.08
549.1190, 39704.44
550.2950, 45231.50
551.4710, 47177.11
552.6470, 43930.82
553.8220, 36667.52
554.9980, 28841.15
556.1730, 21576.76
557.3480, 15380.22
558.5230, 10844.62
559.6980, 7905.993
560.8730, 6013.353
562.0470, 4694.697
563.2220, 3692.023
564.3960, 3069.333
565.5700, 2653.626
566.7440, 2198.901
567.9170, 1983.160
569.0910, 1802.400
570.2640, 1639.633
571.4380, 1566.193
572.6110, 1463.514
573.7840, 1542.781
574.9570, 1494.331
576.1290, 1525.515
577.3020, 1652.493
578.4740, 2021.161
579.6460, 2384.931
580.8180, 2929.673
581.9900, 3909.623
583.1620, 5375.071
584.3330, 7779.717
585.5040, 11658.70
586.6760, 16128.70
587.8470, 20656.68
589.0180, 26361.64
590.1880, 35669.61
591.3590, 46732.53
592.5290, 53809.46
593.7000, 51108.36
594.8700, 41402.26
596.0400, 31013.13
597.2090, 22201.99
598.3790, 15133.84
599.5490, 10547.66
600.7180, 7517.478
601.8870, 5608.274
603.0560, 4417.058
604.2250, 3557.822
605.3940, 3016.572
606.5620, 2661.305
607.7300, 2125.021
608.8990, 1831.722
610.0670, 1733.406
611.2350, 1436.073
612.4020, 1181.724
613.5700, 1068.358
614.7370, 997.9756
615.9050, 733.5757
617.0720, 701.1592
618.2390, 678.7251
619.4060, 541.2747
620.5720, 500.8066
621.7390, 446.3213
622.9050, 436.8188
624.0710, 353.2991
625.2370, 329.7617
626.4030, 324.2070
627.5690, 272.6345
628.7340, 232.0449
629.9000, 289.4373
631.0650, 197.8120
632.2300, 143.1692
633.3950, 182.5227
634.5600, 118.8752
635.7240, 81.23193
636.8890, 81.58447
638.0530, 44.93701
639.2170, 46.28052
640.3810, 21.61816
641.5450, 10.21460
642.7080, 0.3666990
643.8720, 4.394531
645.0350, 23.86963
646.1980, 24.14087
647.3610, 36.64917
648.5240, 57.44385
649.6870, 15.09985
650.8490, 4.762451
652.0120, 13.91064
653.1740, 24.86377
654.3360, 8.143066
655.4980, 23.41064
656.6600, 105.8120
657.8210, 128.3682
658.9830, 183.4150
660.1440, 239.3391
661.3050, 302.7437
662.4660, 375.6831
663.6270, 459.6394
664.7870, 508.1294
665.9480, 559.3079
667.1080, 575.7354
668.2680, 590.1418
669.4280, 494.5271
670.5880, 328.8914
671.7480, 213.2349
672.9070, 147.5579
674.0670, 53.85938
675.2260, 20.12622
676.3850, 21.64966
677.5440, 35.49805
678.7030, 41.41724
679.8610, 72.41357
681.0200, 29.50244
682.1780, 39.66089
683.3360, 11.89453
684.4940, 40.81226
685.6520, 14.48315
686.8090, 35.89136
687.9670, 5.337402
689.1240, 40.16187
690.2810, 53.62622
691.4380, 104.0603
692.5950, 103.1082
693.7520, 109.8618
694.9080, 107.2305
696.0650, 124.5779
697.2210, 135.9058
698.3770, 164.2144
699.5330, 218.5044
700.6880, 291.7756
701.8440, 355.0286
702.9990, 377.2632
704.1550, 455.4792
705.3100, 475.6775
706.4650, 559.8579
707.6190, 587.0208
708.7740, 731.1655
709.9290, 815.2988
711.0830, 952.4487
712.2370, 1032.528
713.3910, 1302.646
714.5450, 1486.783
715.6980, 1758.941
716.8520, 1933.115
718.0050, 2200.311
719.1580, 2607.535
720.3110, 3020.785
721.4640, 3506.058
722.6170, 3894.337
723.7700, 4441.611
724.9220, 4946.886
726.0740, 5553.145
727.2260, 6105.389
728.3780, 6740.617
729.5300, 7166.830
730.6810, 7444.028
731.8330, 7598.212
732.9840, 7694.382
734.1350, 7555.537
735.2860, 7119.678
736.4370, 6722.806
737.5880, 6241.917
738.7380, 6154.015
739.8880, 5799.101
741.0390, 5287.174
742.1890, 4902.232
743.3380, 4513.277
744.4880, 3925.310
745.6380, 3492.329
746.7870, 3008.336
747.9360, 2638.352
749.0850, 2365.313
750.2340, 2009.283
751.3830, 1734.242
752.5310, 1487.188
753.6800, 1302.124
754.8280, 1031.047
755.9760, 998.9600
757.1240, 823.8616
758.2720, 669.7524
759.4190, 622.6328
760.5670, 536.5022
761.7140, 450.3618
762.8610, 449.2114
764.0080, 352.0508
765.1550, 261.8806
766.3020, 286.7012
767.4480, 243.5125
768.5950, 263.3140
769.7410, 191.1069
770.8870, 144.8918
772.0330, 183.6677
773.1780, 46.40479
774.3240, 110.8264
775.4690, 37.24390
776.6140, 36.08643
777.7590, 59.94897
778.9040, 4.152588
780.0490, 27.09473
781.1940, 13.02612
782.3380, 1.159180
783.4820, 7.590088
784.6260, 58.07153
785.7700, 39.48486
786.9140, 114.3010
788.0580, 65.72461
789.2010, 58.64771
790.3450, 67.27246
791.4880, 85.72778
792.6310, 75.31128
793.7730, 62.31470
794.9160, 26.38452
796.0590, 58.24512
797.2010, 36.94604
798.3430, 25.66064
799.4850, 39.38428
800.6270, 15.12183
801.7690, 30.86401
802.9100, 23.61597
804.0520, 35.62573
805.1930, 74.86865
806.3340, 71.11353
807.4750, 123.3604
808.6160, 151.6091
809.7560, 106.9561
810.8970, 175.1550
812.0370, 146.9666
813.1770, 196.5234
814.3170, 210.6306
815.4570, 279.8948
816.5960, 272.8162
817.7360, 349.8237
818.8750, 400.5586
820.0140, 403.6926
821.1530, 531.6074
822.2920, 602.2549
823.4310, 622.8328
824.5690, 759.3665
825.7070, 925.8630
826.8460, 1038.649
827.9840, 1181.898
829.1220, 1399.014
830.2590, 1529.145
831.3970, 1697.356
832.5340, 1885.568
833.6710, 2160.931
834.8080, 2435.358
835.9450, 2602.799
837.0820, 2845.251
838.2190, 3050.718
839.3550, 3173.198
840.4910, 3324.691
841.6270, 3357.200
842.7630, 3570.722
843.8990, 3564.258
845.0350, 3669.810
846.1700, 3735.375
847.3060, 3769.957
848.4410, 3824.554
849.5760, 3984.167
850.7100, 3956.795
851.8450, 4119.439
852.9800, 4405.101
854.1140, 4495.776
855.2480, 4705.469
856.3820, 4994.178
857.5160, 5138.902
858.6500, 5522.645
859.7830, 5888.401
860.9170, 6372.176
862.0500, 6823.969
863.1830, 7405.776
864.3160, 8067.602
865.4480, 8965.445
866.5810, 9975.307
867.7130, 11151.42
868.8460, 12477.08
869.9780, 13976.00
871.1100, 15503.93
872.2410, 17278.89
873.3730, 19192.86
874.5050, 20957.85
875.6360, 22243.87
876.7670, 23294.90
877.8980, 23824.95
879.0290, 23530.02
880.1590, 22833.11
881.2900, 21293.23
882.4200, 19326.36
883.5500, 17526.52
884.6800, 15581.70
885.8100, 13646.89
886.9400, 11985.12
888.0690, 10659.36
889.1990, 9384.625
890.3280, 8360.914
891.4570, 7446.224
892.5860, 6936.558
893.7140, 6531.918
894.8430, 6190.299
895.9710, 6052.705
897.1000, 6191.136
898.2280, 6113.591
899.3560, 6393.068
900.4830, 6876.575
901.6110, 7139.104
902.7380, 7278.659
903.8660, 7604.240
904.9930, 7594.847
906.1200, 7315.478
907.2460, 6775.136
908.3730, 6148.820
909.5000, 5399.531
910.6260, 4863.270
911.7520, 4260.046
912.8780, 3691.857
914.0040, 3286.710
915.1290, 2815.403
916.2550, 2492.372
917.3800, 2264.345
918.5050, 1929.028
919.6300, 1671.499
920.7550, 1514.197
921.8800, 1323.175
923.0040, 1000.997
924.1290, 951.8188
925.2530, 731.1938
926.3770, 603.2219
927.5010, 495.3604
928.6250, 474.2458
929.7480, 306.0017
930.8720, 307.6287
931.9950, 278.7886
933.1180, 270.0845
934.2410, 253.9160
935.3640, 208.2314
936.4860, 165.1655
937.6090, 138.6541
938.7310, 73.47241
939.8530, 61.37305
940.9750, 82.30737
942.0970, 22.27686
943.2180, 45.28003
944.3400, 13.67554
945.4610, 93.40503
946.5820, 141.5247
947.7030, 55.68579
948.8240, 137.9016
949.9450, 115.1748
951.0650, 167.5093
952.1860, 171.9155
953.3060, 197.3970
954.4260, 265.9463
955.5460, 364.5586
956.6650, 335.2363
957.7850, 418.9624
958.9040, 444.7456
960.0230, 454.6003
961.1420, 496.5117
962.2610, 632.4746
963.3800, 585.4878
964.4990, 656.5396
965.6170, 664.6284
966.7350, 621.7551
967.8530, 658.9189
968.9710, 641.1194
970.0890, 510.3557
971.2070, 462.6479
972.3240, 453.9758
973.4410, 459.3396
974.5580, 439.7397
975.6750, 356.1763
976.7920, 383.6504
977.9090, 309.1606
979.0250, 324.7075
980.1410, 361.2903
981.2580, 248.9094
982.3740, 297.5640
983.4890, 281.2568
984.6050, 161.9897
985.7200, 173.7590
986.8360, 174.5642
987.9510, 204.4053
989.0660, 131.2820
990.1810, 175.1948
991.2950, 144.1433
992.4100, 159.1282
993.5240, 142.1487
994.6390, 160.2063
995.7530, 233.3000
996.8660, 197.4331
997.9800, 99.60181
999.0940, 193.8069
1000.207, 112.0520
1001.320, 63.33984
1002.433, 85.66309
1003.546, 39.24805
1004.659, 131.4167
1005.772, 44.84766
1006.884, 94.31421
1007.996, 151.8159
1009.108, 41.35425
1010.220, 60.92749
1011.332, 74.53662
1012.444, 66.18066
1013.555, 20.86060
1014.666, 127.5774
1015.777, 54.33032
1016.888, 138.1182
1017.999, 12.94116
1019.110, 115.7996
1020.220, 99.69238
1021.331, 87.62207
1022.441, 121.5933
1023.551, 96.60229
1024.661, 139.6560
1025.770, 102.7466
1026.880, 117.0969
1027.989, 80.27002
1029.098, 136.4785
1030.207, 119.7275
1031.316, 114.0186
1032.425, 143.3438
1033.533, 178.9958
1034.642, 147.3950
1035.750, 226.8308
1036.858, 153.3225
1037.966, 217.8296
1039.073, 213.3701
1040.181, 223.9443
1041.288, 173.5518
1042.396, 254.1970
1043.503, 187.8755
1044.610, 192.3589
1045.716, 247.2483
1046.823, 314.0764
1047.929, 234.3245
1049.036, 199.4397
1050.142, 269.3318
1051.248, 253.2556
1052.353, 294.3037
1053.459, 302.3035
1054.564, 259.5322
1055.670, 256.6199
1056.775, 314.0730
1057.880, 340.4031
1058.985, 346.6440
1060.089, 268.0024
1061.194, 363.7778
1062.298, 439.9756
1063.402, 344.2417
1064.506, 440.4880
1065.610, 371.2822
1066.713, 428.7993
1067.817, 413.8450
1068.920, 395.5476
1070.023, 429.7131
1071.126, 464.5542
1072.229, 536.4524
1073.332, 549.1699
1074.435, 580.0530
1075.537, 597.8225
1076.639, 651.0381
1077.741, 709.4248
1078.843, 732.2454
1079.945, 889.1165
1081.046, 1007.566
1082.148, 1059.487
1083.249, 1193.431
1084.350, 1346.287
1085.451, 1475.254
1086.551, 1612.026
1087.652, 1696.126
1088.752, 1692.543
1089.853, 1735.733
1090.953, 1645.882
1092.053, 1552.424
1093.152, 1458.282
1094.252, 1399.274
1095.351, 1246.620
1096.451, 1174.175
1097.550, 954.4072
1098.649, 896.9504
1099.748, 745.2205
1100.846, 710.6472
1101.945, 658.9548
1103.043, 573.9048
1104.141, 511.2493
1105.239, 492.6130
1106.337, 474.1462
1107.434, 402.5479
1108.532, 331.4180
1109.629, 357.8555
1110.726, 352.4006
1111.823, 392.8711
1112.920, 149.4045
1114.017, 234.9065
1115.113, 223.8718
1116.210, 191.3333
1117.306, 262.8867
1118.402, 213.4548
1119.498, 208.0374
1120.593, 188.6355
1121.689, 223.2476
1122.784, 247.8735
1123.879, 204.5159
1124.974, 154.1714
1126.069, 186.1572
1127.164, 200.8391
1128.259, 124.2466
1129.353, 194.9556
1130.447, 62.78613
1131.541, 1.521484
1132.635, 76.73755
1133.729, 108.4978
1134.822, 116.4192
1135.916, 110.0518
1137.009, 123.3677
1138.102, 107.7490
1139.195, 118.5647
1140.288, 99.44214
1141.380, 82.28516
1142.473, 95.13037
1143.565, 66.98511
1144.657, 93.87524
1145.749, 75.15942
1146.841, 74.23389
1147.932, 78.01245
1149.024, 75.91528
1150.115, 57.82593
1151.206, 74.74438
1152.297, 57.96875
1153.388, 26.46313
1154.479, 123.0371
1155.569, 41.27075
1156.659, 54.78101
1157.750, 10.58545
1158.839, 53.69824
1159.929, 32.85010
1161.019, 56.21338
1162.108, 54.02759
1163.198, 62.01318
1164.287, 11.61108
1165.376, 84.39575
1166.465, 67.95728
1167.553, 0.3071290
1168.642, 102.8130
1169.730, 47.81738
1170.818, 50.82446
1171.906, 64.83569
1172.994, 66.93066
1174.082, 14.94653
1175.170, 43.71265
1176.257, 29.55444
1177.344, 47.90796
1178.431, 11.58496
1179.518, 30.61255
1180.605, 33.53223
1181.691, 34.49390
1182.778, 0.1440430
1183.864, 81.06079
1184.950, 25.91968
1186.036, 55.02832
1187.122, 5.025146
1188.207, 2.1484001E-02
1189.292, 11.91699
1190.378, 40.14648
1191.463, 46.20410
1192.548, 14.31250
1193.632, 69.43164
1194.717, 50.58765
1195.801, 1.485107
1196.886, 15.50000
1197.970, 24.57007
1199.054, 16.77637
1200.137, 4.940674
1201.221, 17.15845
1202.305, 35.42017
1203.388, 59.29297
1204.471, 6.004395
1205.554, 24.71143
1206.637, 18.59302
1207.719, 3.915771
1208.802, 9.250977
1209.884, 17.51001
1210.966, 18.77002
1212.048, 24.85303
1213.130, 29.46899
1214.212, 22.51709
1215.293, 5.932129
1216.374, 19.05737
1217.456, 16.18213
1218.536, 28.04126
1219.617, 6.093994
1220.698, 21.51416
1221.778, 27.27954
1222.859, 2.508301
1223.939, 16.05444
1225.019, 21.18091
1226.099, 12.56348
1227.178, 59.91650
1228.258, 15.26074
1229.337, 75.59253
1230.417, 21.91479
1231.496, 35.22607
1232.574, 58.36401
1233.653, 62.16260
1234.732, 38.67798
1235.810, 25.11426
1236.888, 51.93408
1237.966, 17.14331
1239.044, 57.87378
1240.122, 31.18359
1241.199, 86.35498
1242.277, 35.55762
1243.354, 44.71558
1244.431, 21.68213
1245.508, 10.18042
1246.585, 48.28906
1247.661, 96.37866
1248.738, 89.45654
1249.814, 64.77246
1250.890, 72.82642
1251.966, 70.74219
1253.042, 60.12744
1254.117, 95.50220
1255.193, 33.50757
1256.268, 61.49634
1257.343, 21.62036
1258.418, 108.9153
1259.493, 47.20703
1260.567, 104.3057
1261.642, 9.395020
1262.716, 74.48682
1263.790, 78.35547
1264.864, 105.2148
1265.938, 53.47437
1267.011, 101.3052
1268.085, 97.12231
1269.158, 59.92529
1270.231, 66.73413
1271.304, 98.50854
1272.377, 74.26855
1273.450, 67.01440
1274.522, 42.29785
1275.594, 63.51685
1276.666, 80.21411
1277.738, 99.89697
1278.810, 105.5649
1279.882, 129.2183
1280.953, 51.91675
1282.025, 14.61426
1283.096, 40.20728
1284.167, 1.720459
1285.238, 44.31641
1286.308, 13.90625
1287.379, 22.17578
1288.449, 63.63574
1289.519, 21.44824
1290.589, 11.92896
1291.659, 89.33423
1292.729, 22.70239
1293.798, 86.75586
1294.868, 49.26489
1295.937, 59.57129
1297.006, 52.87329
1298.075, 136.1372
1299.143, 104.3855
1300.212, 101.8992
1301.280, 34.11548
1302.348, 124.3521
1303.416, 65.52686
1304.484, 74.91235
1305.552, 122.9082
1306.620, 114.9822
1307.687, 121.5564
1308.754, 27.47412
1309.821, 99.53931
1310.888, 58.58911
1311.955, 26.53833
1313.021, 83.54956
1314.088, 131.3628
1315.154, 102.3425
1316.220, 32.00024
1317.286, 130.8062
1318.352, 212.4353
1319.417, 89.56104
1320.483, 299.0920
1321.548, 175.3579
1322.613, 157.0706
1323.678, 58.21289
1324.743, 66.81445
1325.807, 69.74878
1326.872, 83.05786
1327.936, 74.73022
1329.000, 79.95435
1330.064, 101.5198
1331.128, 85.04395
1332.191, 82.75879
1333.255, 82.31958
1334.318, 114.0044
1335.381, 111.2524
1336.444, 98.14624
1337.507, 67.90649
1338.569, 72.52710
1339.632, 84.57983
1340.694, 106.1724
1341.756, 44.74902
1342.818, 102.4224
1343.880, 92.99097
1344.941, 122.7595
1346.003, 53.20923
1347.064, 37.34619
1348.125, 102.7161
1349.186, 60.13428
1350.247, 61.16553
1351.308, 69.88574
1352.368, 28.47852
1353.428, 32.72192
1354.489, 94.76001
1355.549, 89.12305
1356.608, 101.1809
1357.668, 102.5149
1358.727, 129.6978
1359.787, 57.00464
1360.846, 36.67456
1361.905, 36.95044
1362.964, 42.57495
1364.022, 16.48389
1365.081, 112.5303
1366.139, 19.29297
1367.197, 51.49219
1368.255, 158.5869
1369.313, 61.75732
1370.371, 68.86816
1371.428, 6.013184
1372.486, 28.69702
1373.543, 68.88770
1374.600, 118.9871
1375.657, 116.9111
1376.713, 38.14966
1377.770, 93.21216
1378.826, 86.26318
1379.882, 15.30200
1380.938, 74.32666
1381.994, 72.33984
1383.050, 77.02441
1384.106, 49.01440
1385.161, 30.27979
1386.216, 29.44873
1387.271, 45.85229
1388.326, 26.21753
1389.381, 84.67651
1390.435, 101.6230
1391.490, 79.53320
1392.544, 22.42651
1393.598, 158.2109
1394.652, 94.08154
1395.705, 123.9412
1396.759, 66.73975
1397.812, 230.5935
1398.866, 108.6260
1399.919, 110.2424
1400.972, 13.02612
1402.024, 15.41504
1403.077, 101.1287
1404.129, 95.95776
1405.181, 95.72559
1406.233, 130.4993
1407.285, 57.54395
1408.337, 53.98755
1409.389, 98.16040
1410.440, 132.2522
1411.491, 69.70923
1412.542, 49.86328
1413.593, 72.89185
1414.644, 65.26904
1415.695, 16.82275
1416.745, 47.11719
1417.795, 55.95874
1418.845, 70.62476
1419.895, 104.8787
1420.945, 29.49805
1421.995, 58.56030
1423.044, 49.83203
1424.093, 62.94482
1425.142, 91.55688
1426.191, 18.16235
1427.240, 120.7620
1428.289, 46.26685
1429.337, 57.84839
1430.385, 64.10132
1431.433, 86.58691
1432.481, 89.54443
1433.529, 105.5957
1434.577, 107.3923
1435.624, 106.7971
1436.672, 124.4204
1437.719, 75.32617
1438.766, 166.6694
1439.812, 72.19531
1440.859, 110.8481
1441.905, 88.46509
1442.952, 88.80811
1443.998, 86.16577
1445.044, 119.4182
1446.090, 34.58105
1447.135, 147.7166
1448.181, 127.3833
1449.226, 50.60034
1450.271, 34.12646
1451.316, 29.47900
1452.361, 58.37744
1453.405, 56.03662
1454.450, 100.6924
1455.494, 139.2275
1456.538, 79.79053
1457.582, 98.98218
1458.626, 70.61523
1459.670, 123.9868
1460.713, 108.1409
1461.757, 99.56006
1462.800, 82.66284
1463.843, 104.9104
1464.886, 151.5793
1465.928, 86.23535
1466.971, 90.44556
1468.013, 59.54248
1469.055, 109.4675
1470.097, 103.2930
1471.139, 90.85767
1472.181, 107.4119
1473.222, 79.51733
1474.263, 94.09546
1475.305, 100.0979
1476.346, 95.11914
1477.386, 108.6465
1478.427, 113.9688
1479.468, 89.55615
1480.508, 112.2888
1481.548, 129.7891
1482.588, 68.68701
1483.628, 105.1467
1484.668, 76.56665
1485.707, 79.00439
1486.747, 58.62085
1487.786, 105.2820
1488.825, 127.6743
1489.864, 108.9639
1490.902, 102.2271
1491.941, 93.63037
1492.979, 105.9434
1494.017, 105.8005
1495.055, 84.12744
1496.093, 103.6099
1497.131, 108.7883
1498.168, 62.21997
1499.206, 122.2297
1500.243, 97.64014
1501.280, 93.56934
1502.317, 130.6321
1503.354, 75.12329
1504.390, 88.62842
1505.426, 76.11816
1506.463, 93.61377
1507.499, 64.11377
1508.535, 85.62598
1509.570, 59.97925
1510.606, 57.48169
1511.641, 25.60645
1512.676, 14.11450
1513.711, 71.61743
1514.746, 32.12036
1515.781, 17.37622
1516.816, 72.13452
1517.850, 102.6558
1518.884, 76.48755
1519.918, 65.69897
1520.952, 59.24756
1521.986, 34.81250
1523.019, 58.39673
1524.053, 52.99609
1525.086, 90.60718
1526.119, 112.2542
1527.152, 96.67261
1528.185, 28.60620
1529.217, 60.31079
1530.250, 38.05737
1531.282, 0.8251950
1532.314, 60.61279
1533.346, 79.43677
1534.377, 53.28418
1535.409, 37.16260
1536.440, 76.07080
1537.472, 55.00073
1538.503, 52.95532
1539.534, 33.93628
1540.564, 55.94800
1541.595, 59.75537
1542.625, 74.49170
1543.656, 80.69287
1544.686, 88.15674
1545.716, 102.6499
1546.745, 108.5657
1547.775, 125.6770
1548.804, 143.7083
1549.834, 171.5281
1550.863, 201.5798
1551.892, 265.8459
1552.920, 264.9319
1553.949, 169.8477
1554.977, 36.94263
1556.006, 50.65332
1557.034, 72.74854
1558.062, 43.24268
1559.089, 105.8054
1560.117, 49.44238
1561.144, 12.80811
1562.172, 69.27759
1563.199, 75.62866
1564.226, 53.03125
1565.252, 64.80688
1566.279, 81.15918
1567.305, 100.3137
1568.332, 35.78247
1569.358, 4.792969
1570.384, 0.0000000E+00
##END=



