##NAMES=Chlormayenite
##RRUFFID=R130063
##IDEAL CHEMISTRY=Ca_12_Al_14_O_32_[[box]_4_Cl_2_]
##LOCALITY=Northwest Africa (NWA) 1934 meteorite
##OWNER=Chi Ma
##SOURCE=Chi Ma
##DESCRIPTION=Fine-grained aggregates coexisting with hercynite, gehlenite, and perovskite. Data from Ma et al (2011)
##STATUS=The identification of this mineral is confirmed by electron back-scatter diffraction and chemical analysis
##URL=rruff.info/R130063
##MEASURED CHEMISTRY=(Ca_11.91_Na_0.06_)_Σ=11.97_(Al_13.89_Fe^2+^_ 0.16_Ti^4+^_0.01_)_Σ=14.06_O_31.89_Cl_2.11_
150.5360, 0.0000000E+00
151.7660, 42.98438
152.9960, 6.363281
154.2260, 305.1562
155.4550, 233.7773
156.6840, 225.6523
157.9130, 445.4629
159.1420, 291.8711
160.3710, 457.5391
161.6000, 199.1816
162.8280, 254.9746
164.0560, 457.6133
165.2840, 585.0820
166.5120, 480.1270
167.7400, 350.2363
168.9670, 580.2363
170.1940, 803.3809
171.4220, 514.3398
172.6480, 827.3047
173.8750, 558.3828
175.1020, 561.3945
176.3280, 728.1699
177.5540, 767.3555
178.7800, 825.4980
180.0060, 653.8438
181.2310, 635.6543
182.4570, 477.2910
183.6820, 939.7188
184.9070, 765.9043
186.1320, 490.4160
187.3560, 633.8281
188.5810, 283.4102
189.8050, 633.8418
191.0290, 431.1895
192.2530, 606.6406
193.4770, 745.6738
194.7000, 603.0840
195.9240, 425.8613
197.1470, 676.1934
198.3700, 775.4902
199.5920, 545.9238
200.8150, 367.5879
202.0370, 655.7637
203.2600, 629.2559
204.4820, 613.1426
205.7030, 625.9082
206.9250, 685.8926
208.1470, 592.6348
209.3680, 585.4277
210.5890, 498.4570
211.8100, 614.5098
213.0310, 736.9082
214.2510, 429.2383
215.4710, 172.7812
216.6920, 613.1270
217.9120, 412.1738
219.1310, 211.3320
220.3510, 459.5293
221.5700, 453.7266
222.7900, 169.0137
224.0090, 454.4453
225.2270, 563.6914
226.4460, 396.1699
227.6650, 341.4336
228.8830, 313.2910
230.1010, 324.3945
231.3190, 319.0098
232.5370, 130.9414
233.7540, 203.7793
234.9720, 194.5723
236.1890, 43.76953
237.4060, 385.9902
238.6230, 303.1113
239.8390, 292.4043
241.0560, 59.71875
242.2720, 44.93945
243.4880, 51.08594
244.7040, 402.6816
245.9200, 293.8379
247.1350, 351.5078
248.3500, 347.5938
249.5660, 343.6973
250.7810, 376.9160
251.9950, 93.15039
253.2100, 482.4102
254.4240, 309.7852
255.6390, 428.1230
256.8530, 574.7266
258.0660, 400.0469
259.2800, 27.48438
260.4940, 547.1445
261.7070, 63.21289
262.9200, 294.4844
264.1330, 160.8770
265.3460, 507.6895
266.5580, 297.9160
267.7710, 277.7578
268.9830, 84.41797
270.1950, 435.6934
271.4070, 265.0449
272.6180, 205.7070
273.8300, 540.6875
275.0410, 307.7109
276.2520, 605.5020
277.4630, 595.9043
278.6740, 540.8203
279.8840, 444.3750
281.0950, 343.8633
282.3050, 644.1582
283.5150, 458.9668
284.7240, 329.5781
285.9340, 390.7051
287.1440, 612.7344
288.3530, 404.7266
289.5620, 408.3164
290.7710, 494.1035
291.9790, 501.4160
293.1880, 219.0195
294.3960, 482.7246
295.6040, 334.7324
296.8120, 549.0645
298.0200, 57.74805
299.2280, 305.4297
300.4350, 390.4453
301.6420, 399.0332
302.8490, 368.7129
304.0560, 458.6445
305.2630, 235.8535
306.4690, 471.1211
307.6760, 462.4316
308.8820, 592.3750
310.0880, 243.5371
311.2930, 313.6113
312.4990, 406.6816
313.7040, 530.9453
314.9100, 485.1992
316.1150, 311.3125
317.3200, 448.3223
318.5240, 436.9883
319.7290, 270.4375
320.9330, 289.3535
322.1370, 92.43164
323.3410, 526.8613
324.5450, 293.6211
325.7480, 465.1641
326.9520, 604.5508
328.1550, 399.4688
329.3580, 553.9277
330.5610, 716.7266
331.7630, 334.3379
332.9660, 728.1914
334.1680, 546.4219
335.3700, 667.9512
336.5720, 762.5508
337.7740, 343.3418
338.9750, 623.0996
340.1770, 574.1895
341.3780, 367.1035
342.5790, 280.7344
343.7800, 558.7871
344.9800, 407.8555
346.1810, 375.6406
347.3810, 514.2402
348.5810, 194.5586
349.7810, 568.7871
350.9810, 690.8281
352.1800, 494.0879
353.3800, 86.82031
354.5790, 363.2598
355.7780, 404.2090
356.9770, 322.1660
358.1750, 22.77148
359.3740, 360.2949
360.5720, 326.1680
361.7700, 557.0449
362.9680, 199.4297
364.1660, 142.4141
365.3630, 431.9062
366.5610, 168.1465
367.7580, 200.8906
368.9550, 281.6934
370.1520, 42.70117
371.3490, 299.3945
372.5450, 200.5918
373.7410, 210.4883
374.9370, 312.3086
376.1330, 188.4277
377.3290, 135.5488
378.5250, 170.5645
379.7200, 236.9805
380.9150, 428.8984
382.1100, 221.2070
383.3050, 304.4199
384.5000, 71.52148
385.6940, 39.51953
386.8880, 200.2715
388.0820, 476.1152
389.2760, 68.84375
390.4700, 491.9707
391.6640, 495.6777
392.8570, 294.0762
394.0500, 500.9688
395.2430, 500.5488
396.4360, 338.6211
397.6290, 22.51562
398.8210, 220.1289
400.0140, 118.8613
401.2060, 382.5820
402.3980, 77.89258
403.5890, 91.89453
404.7810, 303.2852
405.9720, 724.7871
407.1640, 496.2871
408.3550, 161.9355
409.5450, 257.8730
410.7360, 208.9980
411.9270, 139.0117
413.1170, 474.4180
414.3070, 225.9121
415.4970, 199.9785
416.6870, 407.3281
417.8760, 112.8730
419.0660, 16.12891
420.2550, 410.8516
421.4440, 151.4609
422.6330, 287.4785
423.8220, 5.605469
425.0100, 25.15039
426.1990, 283.0918
427.3870, 69.81641
428.5750, 64.72656
429.7620, 91.31836
430.9500, 44.13477
432.1380, 183.8203
433.3250, 200.3926
434.5120, 319.6504
435.6990, 194.5391
436.8860, 366.8906
438.0720, 296.4941
439.2580, 108.0898
440.4450, 338.9844
441.6310, 292.2227
442.8160, 140.9961
444.0020, 243.3125
445.1880, 58.93750
446.3730, 94.10547
447.5580, 194.3086
448.7430, 151.0938
449.9280, 96.76562
451.1120, 98.48438
452.2970, 114.1719
453.4810, 387.5430
454.6650, 377.9062
455.8490, 112.7539
457.0320, 430.4922
458.2160, 126.0039
459.3990, 451.6094
460.5820, 67.38672
461.7650, 31.56250
462.9480, 87.94922
464.1310, 306.8867
465.3130, 106.6523
466.4950, 1.601563
467.6770, 6.679688
468.8590, 206.4648
470.0410, 128.3906
471.2220, 306.5781
472.4040, 336.6445
473.5850, 1.609375
474.7660, 14.00781
475.9470, 151.3672
477.1270, 172.7383
478.3080, 232.1484
479.4880, 7.082031
480.6680, 69.15625
481.8480, 168.1562
483.0280, 151.1523
484.2080, 399.1250
485.3870, 185.1094
486.5660, 365.2422
487.7450, 312.1484
488.9240, 384.2383
490.1030, 452.0078
491.2810, 375.5508
492.4600, 526.0742
493.6380, 576.2695
494.8160, 203.5742
495.9940, 753.2266
497.1710, 1245.660
498.3490, 1062.871
499.5260, 1292.160
500.7030, 1144.949
501.8800, 1784.289
503.0570, 1663.105
504.2330, 1894.594
505.4090, 2292.230
506.5860, 2645.379
507.7620, 3077.113
508.9380, 3357.809
510.1130, 3681.750
511.2890, 4424.195
512.4640, 4595.090
513.6390, 5039.984
514.8140, 5214.648
515.9890, 4928.691
517.1630, 4988.406
518.3380, 4435.000
519.5120, 4236.965
520.6860, 3723.707
521.8600, 3136.160
523.0340, 2873.945
524.2070, 2323.910
525.3810, 1739.645
526.5540, 1762.867
527.7270, 1519.922
528.9000, 1493.680
530.0720, 1141.895
531.2450, 1348.840
532.4170, 1109.219
533.5890, 737.4922
534.7610, 538.2109
535.9330, 725.1094
537.1050, 687.9844
538.2760, 716.9258
539.4470, 834.0664
540.6180, 574.8633
541.7890, 366.7266
542.9600, 335.8125
544.1300, 606.1055
545.3010, 402.0898
546.4710, 146.7578
547.6410, 6.695313
548.8110, 292.2578
549.9810, 487.6992
551.1500, 537.8125
552.3190, 444.5977
553.4880, 515.1680
554.6570, 526.7266
555.8260, 403.5391
556.9950, 387.2422
558.1630, 112.4414
559.3310, 102.0898
560.5000, 188.0898
561.6670, 317.1602
562.8350, 232.2109
564.0030, 218.6602
565.1700, 634.5078
566.3370, 261.6484
567.5040, 497.7344
568.6710, 352.7422
569.8380, 445.2812
571.0040, 572.8164
572.1710, 69.18750
573.3370, 102.5391
574.5030, 473.8594
575.6690, 233.9609
576.8340, 144.1328
578.0000, 281.5742
579.1650, 493.2969
580.3300, 527.8945
581.4950, 261.9688
582.6600, 643.0820
583.8240, 510.2148
584.9890, 177.5156
586.1530, 28.03125
587.3170, 569.3672
588.4810, 719.9297
589.6440, 191.4180
590.8080, 184.9883
591.9710, 621.3281
593.1340, 494.4492
594.2970, 537.4492
595.4600, 552.5273
596.6230, 406.2812
597.7850, 154.5156
598.9480, 345.8516
600.1100, 477.9180
601.2720, 38.10156
602.4330, 45.14062
603.5950, 94.67578
604.7560, 632.6680
605.9180, 391.4414
607.0790, 134.0195
608.2400, 298.9375
609.4000, 144.6445
610.5610, 359.8398
611.7210, 480.2148
612.8810, 352.7812
614.0420, 252.0469
615.2010, 415.5820
616.3610, 199.6602
617.5210, 158.6445
618.6800, 362.8438
619.8390, 49.54688
620.9980, 353.6875
622.1570, 165.5039
623.3150, 156.3945
624.4740, 116.9805
625.6320, 302.1484
626.7900, 299.4062
627.9480, 309.7500
629.1060, 436.5820
630.2640, 151.0000
631.4210, 457.1133
632.5780, 14.37891
633.7350, 231.1016
634.8920, 492.1406
636.0490, 208.3750
637.2050, 261.6992
638.3620, 544.2109
639.5180, 307.8164
640.6740, 240.0078
641.8300, 209.0000
642.9860, 277.5820
644.1410, 77.75000
645.2960, 66.11328
646.4520, 198.7383
647.6070, 164.1094
648.7610, 243.8477
649.9160, 333.3711
651.0710, 174.2852
652.2250, 299.0039
653.3790, 246.0156
654.5330, 118.9688
655.6870, 246.2852
656.8400, 399.1367
657.9940, 248.5781
659.1470, 243.3164
660.3000, 8.054688
661.4530, 377.8867
662.6060, 494.1133
663.7580, 141.6406
664.9110, 56.07031
666.0630, 263.9180
667.2150, 479.2930
668.3670, 2.894531
669.5190, 264.5000
670.6700, 241.7188
671.8210, 97.33984
672.9730, 217.8516
674.1240, 158.1641
675.2740, 500.3711
676.4250, 127.7891
677.5760, 144.0977
678.7260, 153.9219
679.8760, 363.7422
681.0260, 110.5625
682.1760, 102.9805
683.3260, 119.4141
684.4750, 379.4414
685.6240, 441.2461
686.7730, 17.44531
687.9220, 157.8828
689.0710, 126.5156
690.2200, 475.9609
691.3680, 34.38672
692.5160, 106.1641
693.6650, 307.8125
694.8120, 106.4688
695.9600, 3.363281
697.1080, 124.6133
698.2550, 93.90625
699.4020, 306.3398
700.5490, 222.5859
701.6960, 34.21484
702.8430, 114.6211
703.9900, 111.5742
705.1360, 307.0352
706.2820, 31.30859
707.4280, 233.3945
708.5740, 260.6172
709.7200, 118.2109
710.8650, 32.64844
712.0110, 273.6953
713.1560, 283.7578
714.3010, 228.3828
715.4460, 288.3242
716.5900, 48.90625
717.7350, 153.4648
718.8790, 270.6445
720.0230, 84.13672
721.1670, 253.9141
722.3110, 216.1133
723.4550, 36.19531
724.5980, 288.7578
725.7410, 71.57031
726.8840, 267.8867
728.0270, 236.4531
729.1700, 111.0859
730.3130, 377.5781
731.4550, 215.0898
732.5970, 317.5078
733.7400, 236.0352
734.8810, 310.0703
736.0230, 381.6406
737.1650, 37.02344
738.3060, 519.0273
739.4470, 495.8984
740.5880, 10.60938
741.7290, 391.1680
742.8700, 272.6836
744.0110, 450.0000
745.1510, 293.8945
746.2910, 324.4766
747.4310, 596.1875
748.5710, 324.2617
749.7110, 499.7617
750.8500, 387.8594
751.9900, 376.9922
753.1290, 442.8633
754.2680, 702.0820
755.4070, 972.7852
756.5460, 810.5195
757.6840, 800.6992
758.8220, 618.7344
759.9610, 757.4805
761.0990, 1052.230
762.2360, 751.4766
763.3740, 1450.750
764.5120, 1216.117
765.6490, 1687.000
766.7860, 1635.629
767.9230, 1659.129
769.0600, 2368.980
770.1970, 2242.719
771.3330, 1961.316
772.4690, 2334.801
773.6050, 2245.332
774.7410, 2118.500
775.8770, 2304.723
777.0130, 1737.414
778.1480, 1603.691
779.2840, 1591.355
780.4190, 1389.414
781.5540, 1492.293
782.6880, 1179.828
783.8230, 1534.926
784.9570, 1039.164
786.0920, 1097.309
787.2260, 1307.184
788.3600, 1264.918
789.4940, 1320.605
790.6270, 900.7734
791.7610, 972.7305
792.8940, 1452.957
794.0270, 511.6445
795.1600, 809.5742
796.2930, 507.3203
797.4250, 831.7930
798.5580, 704.6211
799.6900, 603.1641
800.8220, 1044.367
801.9540, 771.0312
803.0860, 813.8711
804.2170, 629.9922
805.3490, 938.4297
806.4800, 753.4531
807.6110, 664.9766
808.7420, 661.8945
809.8720, 618.0547
811.0030, 637.0625
812.1330, 688.4531
813.2640, 1032.633
814.3940, 1004.312
815.5240, 976.1094
816.6530, 602.6562
817.7830, 594.2891
818.9120, 720.0312
820.0410, 800.6211
821.1710, 677.8320
822.2990, 1250.598
823.4280, 916.2344
824.5570, 1210.117
825.6850, 843.6602
826.8130, 939.7578
827.9410, 1049.008
829.0690, 669.4102
830.1970, 874.5391
831.3240, 847.7500
832.4520, 951.7539
833.5790, 1046.234
834.7060, 797.2305
835.8330, 751.9258
836.9590, 1147.039
838.0860, 764.4375
839.2120, 941.7188
840.3390, 801.1602
841.4650, 880.2578
842.5900, 384.9062
843.7160, 628.4766
844.8420, 639.1562
845.9670, 833.5039
847.0920, 993.1680
848.2170, 751.5508
849.3420, 711.0586
850.4670, 950.0859
851.5910, 874.0195
852.7160, 852.9883
853.8400, 578.0000
854.9640, 597.1562
856.0880, 725.0586
857.2110, 723.3281
858.3350, 790.6250
859.4580, 767.4102
860.5810, 988.2969
861.7040, 1156.172
862.8270, 1060.914
863.9500, 948.6836
865.0720, 441.2148
866.1950, 797.7891
867.3170, 830.0938
868.4390, 734.6992
869.5610, 506.0664
870.6820, 774.5586
871.8040, 789.0898
872.9250, 661.8359
874.0460, 754.3555
875.1670, 649.7148
876.2880, 713.7070
877.4090, 1297.328
878.5300, 934.3711
879.6500, 946.3828
880.7700, 972.2539
881.8900, 982.3516
883.0100, 664.9414
884.1300, 735.4453
885.2490, 928.5781
886.3680, 1084.676
887.4880, 754.1055
888.6070, 957.4609
889.7250, 807.7656
890.8440, 835.3555
891.9630, 792.0039
893.0810, 681.5078
894.1990, 544.4688
895.3170, 607.4922
896.4350, 580.9531
897.5530, 906.7773
898.6700, 634.4961
899.7880, 584.5820
900.9050, 355.1406
902.0220, 306.1758
903.1390, 298.5664
904.2550, 816.7344
905.3720, 744.8320
906.4880, 335.9258
907.6040, 818.0781
908.7200, 647.4062
909.8360, 467.2305
910.9520, 757.8320
912.0670, 132.1484
913.1830, 586.1953
914.2980, 621.1484
915.4130, 400.4414
916.5280, 953.1445
917.6430, 276.3555
918.7570, 307.5000
919.8720, 577.1719
920.9860, 209.0039
922.1000, 419.5508
923.2140, 231.4492
924.3270, 578.7812
925.4410, 373.0859
926.5540, 601.5117
927.6670, 925.2148
928.7810, 419.0234
929.8930, 393.7383
931.0060, 312.3516
932.1190, 214.7930
933.2310, 403.1914
934.3430, 557.4062
935.4550, 767.3906
936.5670, 22.35938
937.6790, 571.7578
938.7900, 150.3711
939.9020, 330.6875
941.0130, 494.4102
942.1240, 653.4805
943.2350, 404.1250
944.3460, 717.0469
945.4560, 84.18750
946.5670, 731.7852
947.6770, 439.6602
948.7870, 384.8359
949.8970, 387.5938
951.0070, 400.0664
952.1160, 211.6953
953.2260, 332.9453
954.3350, 294.4102
955.4440, 281.5391
956.5530, 408.3750
957.6620, 727.0391
958.7700, 306.7734
959.8790, 89.81641
960.9870, 246.9414
962.0950, 641.3750
963.2030, 329.9062
964.3110, 225.6914
965.4190, 460.0000
966.5260, 119.2305
967.6330, 635.1016
968.7400, 334.9023
969.8470, 474.0000
970.9540, 658.5156
972.0610, 581.9023
973.1670, 313.8672
974.2740, 349.8711
975.3800, 227.1875
976.4860, 318.9297
977.5920, 242.1719
978.6970, 150.6367
979.8030, 178.6836
980.9080, 188.3242
982.0130, 285.6016
983.1180, 736.9102
984.2230, 585.7227
985.3280, 227.4570
986.4320, 408.9883
987.5360, 342.4805
988.6410, 709.9961
989.7450, 59.89062
990.8480, 460.5625
991.9520, 270.4844
993.0560, 870.2109
994.1590, 419.6953
995.2620, 481.4766
996.3650, 197.8438
997.4680, 278.3203
998.5710, 303.2617
999.6730, 413.5430
1000.780, 531.9414
1001.880, 456.5000
1002.980, 449.6680
1004.080, 73.33203
1005.180, 323.8047
1006.290, 481.5195
1007.390, 613.8789
1008.490, 681.5000
1009.590, 497.0547
1010.690, 853.8555
1011.790, 99.71875
1012.890, 777.5898
1013.990, 532.1484
1015.090, 699.0273
1016.190, 201.6562
1017.290, 773.0117
1018.390, 469.8516
1019.490, 441.5547
1020.590, 932.9766
1021.690, 686.8320
1022.790, 629.8438
1023.890, 263.8359
1024.990, 566.7383
1026.090, 725.6211
1027.180, 605.8164
1028.280, 309.0430
1029.380, 990.1445
1030.480, 1155.277
1031.580, 506.5430
1032.670, 527.0586
1033.770, 291.2852
1034.870, 902.6641
1035.970, 499.6172
1037.060, 801.7148
1038.160, 682.6484
1039.260, 709.3906
1040.350, 213.6680
1041.450, 358.4180
1042.550, 616.7578
1043.640, 760.5938
1044.740, 258.6484
1045.830, 490.9180
1046.930, 475.0742
1048.020, 800.4102
1049.120, 637.8047
1050.210, 400.8984
1051.310, 788.8203
1052.400, 839.6562
1053.500, 502.5781
1054.590, 323.5000
1055.690, 192.7969
1056.780, 669.6289
1057.880, 604.5156
1058.970, 529.4570
1060.060, 751.8828
1061.160, 705.0469
1062.250, 545.5000
1063.340, 713.0664
1064.440, 838.0117
1065.530, 703.6328
1066.620, 440.6367
1067.710, 637.9922
1068.810, 575.9492
1069.900, 220.6602
1070.990, 697.1758
1072.080, 976.2031
1073.170, 999.1992
1074.270, 234.5547
1075.360, 334.4102
1076.450, 534.4180
1077.540, 548.7305
1078.630, 987.9961
1079.720, 795.4453
1080.810, 253.8438
1081.900, 772.0039
1082.990, 615.8281
1084.080, 906.5586
1085.170, 812.7812
1086.260, 449.7617
1087.350, 435.0352
1088.440, 650.3008
1089.530, 575.1953
1090.620, 534.3789
1091.710, 672.7734
1092.800, 302.4766
1093.880, 570.0547
1094.970, 449.9805
1096.060, 431.9805
1097.150, 491.3008
1098.240, 795.7344
1099.330, 197.8945
1100.410, 662.2461
1101.500, 614.6484
1102.590, 390.5391
1103.680, 345.1836
1104.760, 3.675781
1105.850, 785.9023
1106.940, 780.6758
1108.020, 405.4414
1109.110, 247.7383
1110.200, 608.9453
1111.280, 334.9102
1112.370, 456.5312
1113.450, 194.2930
1114.540, 291.5820
1115.620, 429.4297
1116.710, 172.5117
1117.790, 289.9961
1118.880, 144.0000
1119.960, 36.89844
1121.050, 213.8594
1122.130, 270.5586
1123.220, 129.2305
1124.300, 37.56250
1125.390, 399.5820
1126.470, 84.63281
1127.550, 41.86328
1128.640, 363.7578
1129.720, 118.6211
1130.800, 169.5000
1131.890, 332.1719
1132.970, 23.42578
1134.050, 26.87109
1135.130, 237.1133
1136.220, 6.882813
1137.300, 149.5781
1138.380, 99.76953
1139.460, 10.22266
1140.540, 13.55469
1141.630, 18.51953
1142.710, 36.50000
1143.790, 75.96875
1144.870, 215.9609
1145.950, 363.5820
1147.030, 4.097656
1148.110, 62.25391
1149.190, 63.66797
1150.270, 371.1602
1151.350, 253.3438
1152.430, 191.3711
1153.510, 457.7891
1154.590, 279.4922
1155.670, 327.9727
1156.750, 195.1094
1157.830, 72.28906
1158.910, 221.7695
1159.990, 54.52734
1161.070, 380.1289
1162.150, 489.2812
1163.220, 127.8828
1164.300, 235.6094
1165.380, 464.6055
1166.460, 96.95703
1167.540, 159.0742
1168.610, 536.0312
1169.690, 86.59375
1170.770, 221.0117
1171.850, 99.72656
1172.920, 51.49219
1174.000, 310.2305
1175.080, 62.17188
1176.150, 264.4844
1177.230, 242.5430
1178.310, 218.1211
1179.380, 122.0352
1180.460, 452.0039
1181.530, 41.67578
1182.610, 298.8789
1183.680, 247.1094
1184.760, 622.1328
1185.830, 26.86328
1186.910, 106.1445
1187.980, 392.5703
1189.060, 238.8555
1190.130, 118.4922
1191.210, 179.3164
1192.280, 102.6289
1193.360, 13.65625
1194.430, 485.4609
1195.500, 119.3516
1196.580, 2.699219
1197.650, 287.4141
1198.720, 68.63672
1199.800, 44.07422
1200.870, 183.7227
1201.940, 317.3164
1203.010, 197.8242
1204.090, 278.6875
1205.160, 18.95703
1206.230, 461.1602
1207.300, 150.5781
1208.380, 367.6133
1209.450, 546.2578
1210.520, 162.8633
1211.590, 6.355469
1212.660, 161.9102
1213.730, 561.2656
1214.800, 523.7969
1215.870, 184.1758
1216.940, 689.8477
1218.010, 239.9883
1219.080, 251.4805
1220.150, 720.4688
1221.220, 1194.371
1222.290, 600.0703
1223.360, 734.1523
1224.430, 847.4961
1225.500, 219.5195
1226.570, 1201.934
1227.640, 889.9375
1228.710, 1070.230
1229.780, 825.4492
1230.850, 1146.590
1231.910, 954.2891
1232.980, 1655.238
1234.050, 1240.969
1235.120, 1376.617
1236.190, 1367.273
1237.250, 1513.652
1238.320, 1581.691
1239.390, 1555.984
1240.460, 1671.316
1241.520, 1674.449
1242.590, 1749.293
1243.660, 2279.492
1244.720, 2278.422
1245.790, 2508.312
1246.850, 2324.395
1247.920, 2394.613
1248.990, 2024.621
1250.050, 2993.898
1251.120, 3035.992
1252.180, 2567.348
1253.250, 3337.035
1254.310, 3350.191
1255.380, 3390.734
1256.440, 3584.445
1257.510, 3922.059
1258.570, 4025.910
1259.640, 3790.523
1260.700, 4577.672
1261.760, 4525.605
1262.830, 4408.699
1263.890, 4864.605
1264.960, 5361.219
1266.020, 5179.199
1267.080, 5470.719
1268.140, 5602.320
1269.210, 5890.676
1270.270, 6569.801
1271.330, 6445.605
1272.400, 6520.230
1273.460, 6873.457
1274.520, 7660.469
1275.580, 7832.750
1276.640, 8263.781
1277.700, 8032.883
1278.770, 8364.676
1279.830, 9354.195
1280.890, 9801.492
1281.950, 9743.445
1283.010, 9774.906
1284.070, 10379.84
1285.130, 10910.61
1286.190, 11452.80
1287.250, 11817.55
1288.310, 12093.84
1289.370, 12422.67
1290.430, 13190.80
1291.490, 14068.16
1292.550, 14077.35
1293.610, 14705.40
1294.670, 15794.52
1295.730, 15882.38
1296.790, 16393.96
1297.850, 17308.84
1298.900, 18191.41
1299.960, 18282.22
1301.020, 19028.77
1302.080, 19566.21
1303.140, 20162.55
1304.190, 21592.61
1305.250, 21756.22
1306.310, 23251.46
1307.370, 23968.97
1308.420, 24460.53
1309.480, 25352.30
1310.540, 26486.16
1311.590, 26640.99
1312.650, 27726.51
1313.710, 29002.23
1314.760, 30270.36
1315.820, 31604.29
1316.880, 31672.21
1317.930, 32562.30
1318.990, 33548.80
1320.040, 36076.19
1321.100, 36156.32
1322.150, 38088.38
1323.210, 38915.67
1324.260, 40836.64
1325.320, 41721.48
1326.370, 42480.91
1327.430, 44428.62
1328.480, 45416.65
1329.530, 47190.41
1330.590, 49846.16
1331.640, 51054.48
1332.700, 52469.39
1333.750, 53757.52
1334.800, 55815.48
1335.850, 56394.75
1336.910, 58171.16
1337.960, 59279.25
1339.010, 61547.58
1340.070, 62019.22
1341.120, 63047.80
1342.170, 63726.45
1343.220, 65437.47
1344.270, 65844.14
1345.330, 66725.06
1346.380, 66750.05
1347.430, 66973.89
1348.480, 67800.62
1349.530, 66912.23
1350.580, 66369.52
1351.630, 65389.18
1352.680, 65499.33
1353.730, 63652.94
1354.780, 63399.00
1355.830, 62133.56
1356.880, 60539.58
1357.930, 60161.09
1358.980, 58339.05
1360.030, 57188.51
1361.080, 55971.51
1362.130, 54341.98
1363.180, 53416.92
1364.230, 51616.34
1365.280, 49932.29
1366.330, 48482.70
1367.380, 47356.62
1368.430, 45768.00
1369.470, 44096.92
1370.520, 42718.33
1371.570, 41111.23
1372.620, 39022.67
1373.660, 37873.61
1374.710, 37117.06
1375.760, 35400.09
1376.810, 34273.61
1377.850, 32100.65
1378.900, 31220.22
1379.950, 30082.34
1380.990, 28861.07
1382.040, 28294.46
1383.090, 27068.73
1384.130, 25835.91
1385.180, 24012.82
1386.220, 24105.05
1387.270, 22557.27
1388.310, 21908.96
1389.360, 20529.02
1390.410, 19974.69
1391.450, 18564.21
1392.500, 18039.34
1393.540, 17665.65
1394.580, 16938.22
1395.630, 15986.05
1396.670, 15153.95
1397.720, 14293.41
1398.760, 14027.13
1399.800, 13754.19
1400.850, 12930.66
1401.890, 12023.59
1402.940, 11679.99
1403.980, 11070.84
1405.020, 10756.93
1406.060, 9520.547
1407.110, 8845.562
1408.150, 9324.398
1409.190, 8830.141
1410.230, 7671.703
1411.280, 7480.297
1412.320, 6543.227
1413.360, 6612.062
1414.400, 5793.344
1415.440, 5385.336
1416.480, 5839.844
1417.530, 5168.695
1418.570, 4512.250
1419.610, 4389.422
1420.650, 4000.477
1421.690, 3309.305
1422.730, 3788.750
1423.770, 3937.266
1424.810, 2862.781
1425.850, 2973.820
1426.890, 2717.609
1427.930, 2440.227
1428.970, 2043.109
1430.010, 2197.211
1431.050, 2368.945
1432.090, 1759.219
1433.130, 1753.859
1434.160, 1291.734
1435.200, 1169.719
1436.240, 1021.617
1437.280, 883.6797
1438.320, 500.5859
1439.360, 332.3672
1440.390, 1121.117
1441.430, 284.2578
1442.470, 773.0312
1443.510, 279.3828
1444.540, 277.9297
1445.580, 137.4609
1446.620, 205.1406
1447.650, 330.0469
1448.690, 461.7031
1449.730, 252.7031
1450.760, 322.8828
1451.800, 123.9844
1452.840, 14.07031
1453.870, 150.7344
1454.910, 566.1250
1455.940, 131.1953
1456.980, 5.187500
1458.010, 21.26562
1459.050, 198.7109
1460.080, 145.2656
1461.120, 388.5312
1462.150, 131.0469
1463.190, 71.60156
1464.220, 382.6406
1465.260, 31.30469
1466.290, 179.9141
1467.330, 138.6719
1468.360, 185.3828
1469.390, 550.3516
1470.430, 43.64844
1471.460, 470.8516
1472.490, 32.74219
1473.530, 618.1484
1474.560, 6.945313
1475.590, 303.5469
1476.620, 356.2188
1477.660, 612.7891
1478.690, 167.5547
1479.720, 299.2109
1480.750, 324.7656
1481.780, 648.9531
1482.820, 392.0625
1483.850, 758.7188
1484.880, 691.9609
1485.910, 531.1797
1486.940, 310.1875
1487.970, 1008.812
1489.000, 677.2344
1490.030, 1282.430
1491.060, 556.3203
1492.090, 563.1953
1493.120, 1534.227
1494.160, 1527.641
1495.180, 1407.516
1496.210, 1066.742
1497.240, 1216.906
1498.270, 1396.734
1499.300, 962.4062
1500.330, 1731.039
1501.360, 1380.188
1502.390, 1199.656
1503.420, 1712.398
1504.450, 2152.711
1505.480, 1475.242
1506.500, 1943.195
1507.530, 1587.406
1508.560, 1757.234
1509.590, 2214.586
1510.620, 3122.664
1511.640, 3060.469
1512.670, 3186.008
1513.700, 2873.945
1514.720, 3070.898
1515.750, 3528.938
1516.780, 3770.672
1517.800, 3827.812
1518.830, 4141.039
1519.860, 4583.945
1520.880, 4922.523
1521.910, 4998.375
1522.940, 5208.703
1523.960, 5794.820
1524.990, 5962.102
1526.010, 5968.945
1527.040, 6690.633
1528.060, 5793.297
1529.090, 6037.711
1530.110, 6119.156
1531.140, 6435.047
1532.160, 6526.984
1533.190, 6907.258
1534.210, 6611.664
1535.230, 6963.422
1536.260, 7403.516
1537.280, 7546.031
1538.310, 8216.562
1539.330, 8242.602
1540.350, 7941.586
1541.380, 7748.273
1542.400, 9231.875
1543.420, 9347.281
1544.440, 9927.586
1545.470, 9997.312
1546.490, 11033.24
1547.510, 10497.16
1548.530, 11411.78
1549.560, 11715.29
1550.580, 11817.64
1551.600, 12364.64
1552.620, 13347.31
1553.640, 13223.52
1554.660, 13873.00
1555.680, 14461.55
1556.710, 14486.02
1557.730, 15216.85
1558.750, 16493.70
1559.770, 16754.96
1560.790, 16931.33
1561.810, 18369.40
1562.830, 18876.55
1563.850, 18925.55
1564.870, 20078.52
1565.890, 20212.29
1566.910, 21847.55
1567.930, 22602.03
1568.950, 23643.62
1569.970, 23997.38
1570.980, 25054.01
1572.000, 25889.23
1573.020, 27027.24
1574.040, 28141.07
1575.060, 28601.05
1576.080, 29745.45
1577.090, 30847.75
1578.110, 32531.11
1579.130, 33216.00
1580.150, 34072.96
1581.160, 35055.03
1582.180, 35390.38
1583.200, 37282.41
1584.220, 38191.66
1585.230, 39648.28
1586.250, 40178.64
1587.270, 41624.17
1588.280, 41764.71
1589.300, 43353.11
1590.320, 43689.81
1591.330, 44575.20
1592.350, 45004.71
1593.360, 45569.62
1594.380, 45878.38
1595.390, 45582.93
1596.410, 45893.88
1597.420, 46506.06
1598.440, 46248.00
1599.450, 46114.98
1600.470, 46749.50
1601.480, 46905.19
1602.500, 45982.38
1603.510, 46678.88
1604.520, 45664.68
1605.540, 45934.21
1606.550, 45668.88
1607.570, 45329.12
1608.580, 45659.14
1609.590, 45135.17
1610.610, 45176.77
1611.620, 44181.89
1612.630, 44137.73
1613.640, 43322.08
1614.660, 42484.24
1615.670, 41900.58
1616.680, 41495.52
1617.690, 40459.59
1618.710, 39323.73
1619.720, 38161.27
1620.730, 37585.80
1621.740, 36260.29
1622.750, 34216.62
1623.760, 33195.95
1624.780, 31783.45
1625.790, 29961.30
1626.800, 27687.32
1627.810, 27233.50
1628.820, 24916.56
1629.830, 23099.62
1630.840, 21526.98
1631.850, 20231.06
1632.860, 19192.26
1633.870, 17597.95
1634.880, 15347.39
1635.890, 14860.98
1636.900, 13187.82
1637.910, 12571.20
1638.920, 11391.70
1639.920, 10745.66
1640.930, 9529.711
1641.940, 9116.797
1642.950, 7597.203
1643.960, 7250.477
1644.970, 6833.008
1645.970, 6077.867
1646.980, 5625.773
1647.990, 5208.195
1649.000, 4434.391
1650.010, 3949.930
1651.010, 3782.285
1652.020, 3261.945
1653.030, 2792.500
1654.030, 2654.066
1655.040, 2286.922
1656.050, 2298.914
1657.050, 2170.953
1658.060, 1791.195
1659.070, 1579.938
1660.070, 1264.047
1661.080, 1260.922
1662.080, 1083.781
1663.090, 1009.559
1664.090, 987.0742
1665.100, 495.9141
1666.110, 592.1328
1667.110, 632.0195
1668.120, 418.9961
1669.120, 544.7031
1670.120, 555.1133
1671.130, 165.7227
1672.130, 121.1016
1673.140, 820.6953
1674.140, 262.2305
1675.140, 56.03516
1676.150, 15.64453
1677.150, 104.3438
1678.160, 504.9766
1679.160, 445.1875
1680.160, 30.09766
1681.160, 112.4922
1682.170, 77.56250
1683.170, 153.8477
1684.170, 83.56250
1685.180, 247.2891
1686.180, 452.3828
1687.180, 251.5273
1688.180, 348.5703
1689.180, 147.9922
1690.190, 166.9102
1691.190, 180.3047
1692.190, 171.5977
1693.190, 165.6641
1694.190, 340.1367
1695.190, 97.90625
1696.190, 154.5273
1697.190, 69.36328
1698.190, 221.7617
1699.190, 141.6055
1700.190, 23.79297
1701.190, 94.03125
1702.190, 91.12500
1703.190, 443.0938
1704.190, 153.0547
1705.190, 262.0625
1706.190, 106.3867
1707.190, 306.8594
1708.190, 108.1172
1709.190, 332.5312
1710.190, 49.80859
1711.190, 433.8438
1712.190, 1.082031
1713.180, 429.9609
1714.180, 70.87891
1715.180, 101.5000
1716.180, 288.3906
1717.180, 317.2148
1718.170, 50.91406
1719.170, 506.1484
1720.170, 458.7109
1721.170, 651.6758
1722.160, 383.0547
1723.160, 254.4102
1724.160, 225.6875
1725.150, 275.0312
1726.150, 580.8516
1727.150, 666.3242
1728.140, 543.1094
1729.140, 153.4766
1730.130, 541.6250
1731.130, 673.4531
1732.130, 360.4688
1733.120, 589.5273
1734.120, 609.8594
1735.110, 612.2695
1736.110, 692.1602
1737.100, 879.9414
1738.100, 969.4375
1739.090, 643.8516
1740.080, 702.5391
1741.080, 901.7109
1742.070, 1196.188
1743.070, 1196.734
1744.060, 496.0234
1745.060, 362.7578
1746.050, 1411.539
1747.040, 1073.066
1748.040, 507.6172
1749.030, 1014.094
1750.020, 1037.074
1751.010, 727.2812
1752.010, 726.8477
1753.000, 768.9844
1753.990, 1077.789
1754.980, 1174.703
1755.980, 986.6602
1756.970, 1279.609
1757.960, 901.8242
1758.950, 1210.543
1759.940, 1452.422
1760.940, 1166.930
1761.930, 1698.254
1762.920, 1197.805
1763.910, 1100.570
1764.900, 1116.430
1765.890, 1715.086
1766.880, 1733.078
1767.870, 1172.707
1768.860, 1535.930
1769.850, 1876.285
1770.840, 1870.477
1771.830, 1467.852
1772.820, 1979.270
1773.810, 1363.727
1774.800, 1192.492
1775.790, 1548.969
1776.780, 1665.250
1777.770, 1743.340
1778.760, 1967.750
1779.750, 1423.270
1780.740, 1806.496
1781.720, 1587.539
1782.710, 1621.195
1783.700, 1442.238
1784.690, 1700.602
1785.680, 1272.680
1786.660, 2375.859
1787.650, 1722.160
1788.640, 1476.105
1789.630, 1641.969
1790.610, 2085.297
1791.600, 1487.754
1792.590, 1738.953
1793.570, 1920.305
1794.560, 1784.688
1795.550, 1889.016
1796.530, 2210.398
1797.520, 2301.617
1798.510, 1385.113
1799.490, 1368.379
1800.480, 1827.340
1801.460, 1482.766
1802.450, 1944.621
1803.430, 1813.281
1804.420, 1936.965
1805.410, 1650.129
1806.390, 1771.078
1807.370, 1836.996
1808.360, 1815.762
1809.340, 1899.371
1810.330, 1829.145
1811.310, 1756.180
1812.300, 1809.914
1813.280, 1879.934
1814.260, 1291.195
1815.250, 1585.051
1816.230, 1673.324
1817.220, 1163.578
1818.200, 1535.340
1819.180, 1390.082
1820.160, 1634.820
1821.150, 1512.527
1822.130, 1429.410
1823.110, 1520.441
1824.090, 1703.352
1825.080, 976.5664
1826.060, 1364.238
1827.040, 1351.145
1828.020, 1037.438
1829.000, 1280.316
1829.990, 2055.902
1830.970, 1291.207
1831.950, 1691.281
1832.930, 1524.988
1833.910, 1312.781
1834.890, 1554.648
1835.870, 953.1328
1836.850, 909.3633
1837.830, 1306.262
1838.810, 1656.129
1839.790, 1152.285
1840.770, 1220.980
1841.750, 1371.930
1842.730, 1072.379
1843.710, 1308.977
1844.690, 1498.141
1845.670, 1543.238
1846.650, 1118.027
1847.630, 1079.223
1848.610, 1493.520
1849.590, 1115.766
1850.570, 1317.684
1851.540, 1310.371
1852.520, 1489.828
1853.500, 1045.188
1854.480, 1189.820
1855.460, 1147.984
1856.430, 1150.371
1857.410, 1623.027
1858.390, 1099.059
1859.370, 1501.426
1860.340, 801.6172
1861.320, 628.4766
1862.300, 707.4453
1863.280, 728.8164
1864.250, 1150.008
1865.230, 1243.500
1866.200, 1099.156
1867.180, 1293.820
1868.160, 960.7461
1869.130, 1055.840
1870.110, 1135.387
1871.080, 1317.812
1872.060, 1182.297
1873.040, 974.0039
1874.010, 1190.129
1874.990, 773.5977
1875.960, 295.9102
1876.940, 1445.371
1877.910, 1052.566
1878.880, 980.3555
1879.860, 766.8203
1880.830, 1515.102
1881.810, 1330.238
1882.780, 1232.500
1883.760, 977.0508
1884.730, 883.1406
1885.700, 805.9180
1886.680, 1198.277
1887.650, 1132.289
1888.620, 671.6367
1889.600, 862.7891
1890.570, 773.3477
1891.540, 743.0156
1892.510, 1199.551
1893.490, 1082.562
1894.460, 976.6133
1895.430, 907.8789
1896.400, 1115.926
1897.370, 1005.711
1898.350, 1203.344
1899.320, 1220.980
1900.290, 502.7148
1901.260, 915.5625
1902.230, 696.6094
1903.200, 819.2930
1904.170, 586.0703
1905.140, 381.8867
1906.120, 492.0273
1907.090, 342.1406
1908.060, 828.9062
1909.030, 644.4570
1910.000, 832.9961
1910.970, 1072.875
1911.940, 160.6641
1912.910, 1218.188
1913.880, 927.4727
1914.840, 1191.848
1915.810, 827.9102
1916.780, 855.0430
1917.750, 583.0039
1918.720, 669.8984
1919.690, 684.5078
1920.660, 572.8008
1921.630, 677.9414
1922.590, 548.0938
1923.560, 573.7500
1924.530, 738.8711
1925.500, 728.5625
1926.470, 1033.617
1927.430, 736.6484
1928.400, 403.4180
1929.370, 1005.848
1930.340, 794.1055
1931.300, 465.2109
1932.270, 712.5195
1933.240, 634.1133
1934.200, 536.1133
1935.170, 482.0391
1936.140, 469.4375
1937.100, 645.8398
1938.070, 74.23047
1939.030, 792.4688
1940.000, 554.5430
1940.970, 510.7656
1941.930, 503.1016
1942.900, 832.2695
1943.860, 446.6055
1944.830, 959.7148
1945.790, 462.4258
1946.760, 664.8008
1947.720, 582.1211
1948.690, 346.7070
1949.650, 684.4531
1950.610, 441.4414
1951.580, 859.3203
1952.540, 520.8438
1953.510, 354.9688
1954.470, 38.36719
1955.430, 462.9570
1956.400, 301.4648
1957.360, 431.3398
1958.320, 674.9062
1959.290, 544.9531
1960.250, 796.7227
1961.210, 350.1797
1962.180, 565.9844
1963.140, 72.69531
1964.100, 143.2266
1965.060, 200.9688
1966.020, 479.7344
1966.990, 714.5078
1967.950, 432.4062
1968.910, 353.0625
1969.870, 717.8125
1970.830, 737.8359
1971.790, 607.1875
1972.760, 323.2812
1973.720, 224.3516
1974.680, 292.1094
1975.640, 386.3828
1976.600, 449.6953
1977.560, 232.2656
1978.520, 117.1719
1979.480, 332.7266
1980.440, 301.3672
1981.400, 41.10938
1982.360, 1135.320
1983.320, 54.16406
1984.280, 406.0625
1985.240, 259.7656
1986.200, 523.4688
1987.160, 11.07031
1988.110, 88.75781
1989.070, 140.8281
1990.030, 567.0234
1990.990, 89.32812
1991.950, 262.9219
1992.910, 1037.266
1993.860, 109.8516
1994.820, 710.3281
1995.780, 524.8281
1996.740, 309.8281
1997.700, 142.6641
1998.650, 221.4844
1999.610, 54.57812
2000.570, 0.0000000E+00
##END=



