##NAMES=Clinozoisite
##RRUFFID=R060284
##IDEAL CHEMISTRY=Ca_2_Al_3_(Si_2_O_7_)(SiO_4_)O(OH)
##LOCALITY=near Zagi Mountain, Khaffor Dehri, North-West Frontier Province, Pakistan
##OWNER=RRUFF
##SOURCE=Herb Obodda
##DESCRIPTION=Greenish-brown fragment of a prismatic crystal
##STATUS=The identification of this mineral has been confirmed by X-ray diffraction and chemical analysis
##URL=rruff.info/R060284
##MEASURED CHEMISTRY=Ca_2.00_(Al_0.90_Fe^3+^_0.10_)_3_(Si_1.00_O_4_)(Si_2.00_O_7_)O(OH)
##PIN_ID=L00506
##ORIENTATION=Laser parallel to -a* (-1 0 0). Fiducial mark perpendicular to laser is parallel to b [0 1 0]
118.1340, 0.0000000E+00
119.3650, 23.01221
120.5960, 51.73486
121.8270, 12.10840
123.0580, 10.69238
124.2880, 150.0000
125.5190, 172.0039
126.7490, 325.7832
127.9790, 567.4033
129.2090, 909.5879
130.4390, 1448.137
131.6680, 2024.065
132.8980, 2382.074
134.1270, 3253.083
135.3560, 3970.383
136.5850, 4928.510
137.8140, 5805.153
139.0430, 6752.479
140.2710, 7562.587
141.5000, 8163.232
142.7280, 8667.347
143.9560, 8843.653
145.1840, 8885.409
146.4120, 9028.433
147.6390, 8822.886
148.8670, 8522.884
150.0940, 8526.537
151.3210, 8315.938
152.5490, 8206.255
153.7750, 8182.562
155.0020, 8124.898
156.2290, 8198.349
157.4550, 8155.940
158.6810, 8385.507
159.9080, 8595.224
161.1340, 9286.459
162.3590, 9772.898
163.5850, 10079.14
164.8110, 10674.94
166.0360, 10958.43
167.2610, 11061.28
168.4860, 10890.25
169.7110, 10426.90
170.9360, 9973.536
172.1610, 9391.569
173.3850, 8453.976
174.6100, 7564.751
175.8340, 6587.872
177.0580, 5700.330
178.2820, 4953.110
179.5050, 4219.191
180.7290, 3631.553
181.9520, 3007.187
183.1760, 2608.090
184.3990, 2163.840
185.6220, 1682.029
186.8450, 1218.554
188.0670, 1140.243
189.2900, 939.0996
190.5120, 671.1641
191.7340, 573.1006
192.9560, 473.6367
194.1780, 258.5869
195.4000, 250.5889
196.6220, 166.6318
197.8430, 8.264648
199.0640, 139.9121
200.2860, 126.1729
201.5070, 163.5264
202.7270, 184.9766
203.9480, 60.47070
205.1690, 118.8145
206.3890, 44.05469
207.6090, 21.18652
208.8290, 112.2100
210.0490, 14.87500
211.2690, 83.92871
212.4890, 155.6201
213.7080, 172.2002
214.9280, 193.6758
216.1470, 64.05176
217.3660, 225.3369
218.5850, 215.5312
219.8030, 52.63281
221.0220, 3.636719
222.2400, 53.45898
223.4590, 451.6582
224.6770, 583.9629
225.8950, 818.3750
227.1120, 1160.896
228.3300, 1636.529
229.5480, 2109.274
230.7650, 2673.133
231.9820, 3395.086
233.1990, 4122.154
234.4160, 5010.319
235.6330, 5785.488
236.8490, 6442.705
238.0660, 7469.981
239.2820, 8262.226
240.4980, 9314.429
241.7140, 10375.57
242.9300, 11631.76
244.1460, 13193.09
245.3610, 14702.57
246.5770, 16649.20
247.7920, 18618.99
249.0070, 20565.07
250.2220, 23321.17
251.4370, 24983.94
252.6510, 26871.82
253.8660, 28208.72
255.0800, 28007.52
256.2940, 27667.49
257.5080, 26614.62
258.7220, 24957.90
259.9360, 22446.33
261.1490, 19815.90
262.3630, 17645.83
263.5760, 15489.49
264.7890, 13910.34
266.0020, 12409.20
267.2150, 11304.45
268.4270, 10183.99
269.6400, 9528.192
270.8520, 8722.699
272.0640, 8227.581
273.2760, 7598.795
274.4880, 7111.307
275.7000, 6623.092
276.9120, 6007.121
278.1230, 5462.371
279.3340, 4855.820
280.5450, 4448.457
281.7560, 4171.269
282.9670, 3691.248
284.1780, 3248.387
285.3880, 3198.680
286.5980, 2986.110
287.8090, 2936.663
289.0190, 2780.318
290.2290, 2793.059
291.4380, 2841.883
292.6480, 2743.797
293.8570, 2746.805
295.0670, 2805.906
296.2760, 2864.107
297.4850, 2918.408
298.6930, 2952.809
299.9020, 3090.311
301.1110, 3201.914
302.3190, 3005.619
303.5270, 3002.704
304.7350, 2764.302
305.9430, 2671.282
307.1510, 2566.303
308.3580, 2293.278
309.5660, 2184.239
310.7730, 2005.229
311.9800, 1981.092
313.1870, 1688.887
314.3940, 1815.509
315.6010, 1625.195
316.8070, 1777.008
318.0130, 1800.945
319.2200, 1761.008
320.4260, 2119.193
321.6310, 2477.500
322.8370, 2690.930
324.0430, 3331.479
325.2480, 3719.146
326.4540, 4321.933
327.6590, 5093.838
328.8640, 5770.861
330.0680, 6819.996
331.2730, 7729.242
332.4780, 8611.595
333.6820, 9422.056
334.8860, 9962.622
336.0900, 10461.30
337.2940, 11157.08
338.4980, 11745.96
339.7010, 12112.94
340.9050, 12866.02
342.1080, 13775.20
343.3110, 15190.12
344.5140, 16569.51
345.7170, 18131.00
346.9200, 19838.59
348.1220, 21766.29
349.3240, 23804.45
350.5270, 24669.89
351.7290, 25291.08
352.9310, 24851.48
354.1320, 23504.74
355.3340, 21550.97
356.5350, 19159.94
357.7370, 16535.49
358.9380, 13654.35
360.1390, 11250.31
361.3400, 9123.773
362.5400, 7263.407
363.7410, 5882.668
364.9410, 4804.033
366.1410, 3871.688
367.3410, 3105.338
368.5410, 2466.094
369.7410, 1911.954
370.9400, 1310.921
372.1400, 1277.992
373.3390, 586.1689
374.5380, 479.4531
375.7370, 126.8398
376.9360, 44.33203
378.1350, 218.0703
379.3330, 256.4180
380.5310, 418.7139
381.7300, 365.9922
382.9280, 350.2461
384.1260, 238.4678
385.3230, 46.63379
386.5210, 12.29199
387.7180, 169.3223
388.9160, 302.4570
390.1130, 452.6992
391.3100, 751.0488
392.5060, 775.5020
393.7030, 944.0088
394.9000, 1005.461
396.0960, 949.8545
397.2920, 905.2842
398.4880, 844.8174
399.6840, 777.4570
400.8800, 537.2041
402.0750, 218.0586
403.2710, 59.01855
404.4660, 74.91602
405.6610, 240.7637
406.8560, 356.5723
408.0510, 523.4736
409.2450, 342.4717
410.4400, 321.4844
411.6340, 354.5029
412.8280, 83.54102
414.0220, 213.5059
415.2160, 739.6699
416.4100, 1242.950
417.6030, 1813.345
418.7970, 2581.854
419.9900, 3211.476
421.1830, 4205.209
422.3760, 5275.053
423.5690, 6289.008
424.7610, 7212.072
425.9540, 8057.246
427.1460, 8934.527
428.3380, 9440.918
429.5300, 9574.419
430.7220, 9595.023
431.9140, 9660.736
433.1050, 9468.558
434.2970, 9518.481
435.4880, 9637.515
436.6790, 9862.653
437.8700, 10958.90
439.0610, 12171.25
440.2510, 13832.71
441.4420, 15929.27
442.6320, 18542.94
443.8220, 21840.73
445.0120, 25789.64
446.2020, 29998.68
447.3910, 33996.84
448.5810, 38980.12
449.7700, 43036.52
450.9600, 46574.05
452.1490, 48921.71
453.3370, 49547.51
454.5260, 48788.41
455.7150, 47199.44
456.9030, 44094.61
458.0910, 40700.92
459.2800, 36750.33
460.4670, 33755.86
461.6550, 30237.54
462.8430, 27719.35
464.0300, 25718.28
465.2180, 24105.35
466.4050, 23414.56
467.5920, 22582.88
468.7790, 22333.36
469.9650, 21726.00
471.1520, 22004.78
472.3380, 21991.74
473.5250, 22028.85
474.7110, 22285.14
475.8970, 22109.58
477.0820, 22480.19
478.2680, 22612.94
479.4540, 23055.85
480.6390, 23107.91
481.8240, 23329.11
483.0090, 23011.45
484.1940, 22791.94
485.3780, 21965.56
486.5630, 20816.30
487.7470, 19466.20
488.9320, 17745.29
490.1160, 15945.48
491.3000, 14168.46
492.4830, 12680.92
493.6670, 11321.82
494.8500, 10096.38
496.0340, 9028.904
497.2170, 8384.771
498.4000, 7666.527
499.5820, 7483.164
500.7650, 7203.586
501.9480, 7096.721
503.1300, 7048.113
504.3120, 7128.027
505.4940, 7393.117
506.6760, 7255.352
507.8580, 7544.722
509.0390, 7592.229
510.2210, 7774.835
511.4020, 8169.551
512.5830, 8370.347
513.7640, 8792.223
514.9450, 9090.196
516.1250, 9686.247
517.3060, 10030.38
518.4860, 10427.60
519.6660, 10845.89
520.8460, 11318.23
522.0260, 11509.80
523.2060, 11569.32
524.3850, 11688.59
525.5650, 11705.76
526.7440, 11839.63
527.9230, 12058.17
529.1020, 11759.86
530.2810, 11442.85
531.4590, 10474.91
532.6380, 9391.036
533.8160, 7989.238
534.9940, 6723.512
536.1720, 5399.853
537.3500, 4277.262
538.5270, 3359.743
539.7050, 2555.293
540.8820, 2045.913
542.0590, 1679.600
543.2360, 1422.353
544.4130, 1232.172
545.5900, 991.0566
546.7660, 910.8359
547.9430, 902.3037
549.1190, 923.1260
550.2950, 948.5908
551.4710, 928.3301
552.6470, 1218.233
553.8220, 1436.593
554.9980, 1756.662
556.1730, 1911.132
557.3480, 2607.667
558.5230, 3253.265
559.6980, 3854.925
560.8730, 5072.647
562.0470, 6137.432
563.2220, 7725.275
564.3960, 9468.179
565.5700, 11735.14
566.7440, 13855.16
567.9170, 16478.24
569.0910, 19048.37
570.2640, 21224.56
571.4380, 22218.80
572.6110, 21723.10
573.7840, 20068.45
574.9570, 16992.86
576.1290, 13830.31
577.3020, 10354.81
578.4740, 7803.365
579.6460, 5547.969
580.8180, 4260.619
581.9900, 3357.542
583.1620, 2802.543
584.3330, 2244.158
585.5040, 2264.969
586.6760, 2213.632
587.8470, 2332.998
589.0180, 2304.199
590.1880, 2359.227
591.3590, 2350.691
592.5290, 2682.834
593.7000, 2876.465
594.8700, 3015.055
596.0400, 3377.206
597.2090, 3569.089
598.3790, 3928.678
599.5490, 4226.231
600.7180, 4562.413
601.8870, 5071.079
603.0560, 5397.543
604.2250, 5498.676
605.3940, 5630.658
606.5620, 5542.719
607.7300, 5398.946
608.8990, 4940.294
610.0670, 4472.059
611.2350, 3779.685
612.4020, 3410.066
613.5700, 3091.408
614.7370, 2417.821
615.9050, 2176.641
617.0720, 1841.703
618.2390, 1544.272
619.4060, 1287.321
620.5720, 1218.041
621.7390, 919.7119
622.9050, 795.8496
624.0710, 575.8438
625.2370, 382.9268
626.4030, 116.1777
627.5690, 148.5020
628.7340, 8.165039
629.9000, 17.04199
631.0650, 177.6309
632.2300, 102.2598
633.3950, 85.90430
634.5600, 168.0967
635.7240, 182.5947
636.8890, 128.0596
638.0530, 43.19434
639.2170, 184.1836
640.3810, 46.03418
641.5450, 149.9131
642.7080, 15.85156
643.8720, 122.1250
645.0350, 399.4111
646.1980, 345.6211
647.3610, 506.9482
648.5240, 895.8164
649.6870, 1188.818
650.8490, 1427.114
652.0120, 1662.318
653.1740, 1911.794
654.3360, 2246.668
655.4980, 2446.037
656.6600, 2442.478
657.8210, 2613.004
658.9830, 2514.869
660.1440, 2321.290
661.3050, 2269.339
662.4660, 2091.540
663.6270, 1823.864
664.7870, 1575.271
665.9480, 1649.209
667.1080, 1550.820
668.2680, 1330.691
669.4280, 1306.203
670.5880, 1299.928
671.7480, 1177.353
672.9070, 1186.734
674.0670, 1261.069
675.2260, 1176.359
676.3850, 1343.603
677.5440, 1402.799
678.7030, 1435.947
679.8610, 1575.048
681.0200, 1647.100
682.1780, 1693.103
683.3360, 2051.055
684.4940, 1979.956
685.6520, 2031.807
686.8090, 2330.622
687.9670, 2356.434
689.1240, 2292.267
690.2810, 2342.156
691.4380, 2320.061
692.5950, 2374.976
693.7520, 2397.907
694.9080, 2578.803
696.0650, 2564.639
697.2210, 2568.420
698.3770, 2482.141
699.5330, 2619.805
700.6880, 2531.409
701.8440, 2579.951
702.9990, 2409.434
704.1550, 2240.855
705.3100, 1992.216
706.4650, 1750.514
707.6190, 1608.749
708.7740, 1425.922
709.9290, 1127.029
711.0830, 943.0723
712.2370, 669.0508
713.3910, 635.9648
714.5450, 445.8105
715.6980, 425.5918
716.8520, 301.3047
718.0050, 316.9502
719.1580, 250.5283
720.3110, 146.0371
721.4640, 147.4727
722.6170, 30.83496
723.7700, 29.09668
724.9220, 14.40820
726.0740, 22.30957
727.2260, 28.25391
728.3780, 17.90723
729.5300, 8.802734
730.6810, 70.39551
731.8330, 70.10645
732.9840, 104.2334
734.1350, 45.48242
735.2860, 53.37109
736.4370, 38.62012
737.5880, 125.5049
738.7380, 55.30078
739.8880, 76.00781
741.0390, 51.51562
742.1890, 33.06934
743.3380, 19.19824
744.4880, 2.344727
745.6380, 17.36035
746.7870, 63.74805
747.9360, 165.0234
749.0850, 18.51953
750.2340, 157.1582
751.3830, 92.01562
752.5310, 204.0566
753.6800, 114.3418
754.8280, 101.8223
755.9760, 109.4922
757.1240, 69.02734
758.2720, 95.39551
759.4190, 62.62109
760.5670, 54.01465
761.7140, 83.57520
762.8610, 21.31738
764.0080, 7.793945
765.1550, 73.23047
766.3020, 174.4287
767.4480, 18.89258
768.5950, 26.46680
769.7410, 144.8564
770.8870, 36.75293
772.0330, 63.09082
773.1780, 42.89844
774.3240, 56.06543
775.4690, 66.37012
776.6140, 134.5918
777.7590, 19.28125
778.9040, 60.40430
780.0490, 40.14941
781.1940, 52.06543
782.3380, 94.22168
783.4820, 35.33008
784.6260, 81.21484
785.7700, 122.9141
786.9140, 14.78418
788.0580, 36.77246
789.2010, 176.1123
790.3450, 138.6768
791.4880, 2.358398
792.6310, 141.2578
793.7730, 127.7930
794.9160, 115.2461
796.0590, 185.6162
797.2010, 114.9092
798.3430, 64.12012
799.4850, 140.2432
800.6270, 130.1670
801.7690, 123.2490
802.9100, 182.1309
804.0520, 253.9365
805.1930, 184.6670
806.3340, 264.3213
807.4750, 196.9043
808.6160, 289.4111
809.7560, 384.8477
810.8970, 456.2119
812.0370, 338.5049
813.1770, 375.7266
814.3170, 340.8789
815.4570, 419.9590
816.5960, 564.9707
817.7360, 534.9111
818.8750, 666.7832
820.0140, 700.5859
821.1530, 655.3203
822.2920, 829.9854
823.4310, 820.5830
824.5690, 885.1133
825.7070, 1012.576
826.8460, 1069.970
827.9840, 1201.297
829.1220, 1284.557
830.2590, 1259.748
831.3970, 1303.870
832.5340, 1402.927
833.6710, 1487.916
834.8080, 1535.839
835.9450, 1618.896
837.0820, 1692.507
838.2190, 1754.213
839.3550, 1854.873
840.4910, 1939.468
841.6270, 2037.000
842.7630, 2147.467
843.8990, 2283.871
845.0350, 2358.212
846.1700, 2635.491
847.3060, 2800.708
848.4410, 2927.863
849.5760, 3163.958
850.7100, 3503.991
851.8450, 3707.966
852.9800, 4163.879
854.1140, 4400.735
855.2480, 4817.531
856.3820, 5202.271
857.5160, 5627.957
858.6500, 6122.096
859.7830, 6608.840
860.9170, 7111.377
862.0500, 7674.052
863.1830, 8230.009
864.3160, 8722.121
865.4480, 9556.394
866.5810, 10438.22
867.7130, 11276.35
868.8460, 12503.98
869.9780, 13442.64
871.1100, 14460.73
872.2410, 15902.07
873.3730, 16896.69
874.5050, 18025.32
875.6360, 19470.32
876.7670, 20285.81
877.8980, 21080.50
879.0290, 21642.51
880.1590, 21969.64
881.2900, 21539.69
882.4200, 20788.55
883.5500, 19738.28
884.6800, 18414.58
885.8100, 17233.00
886.9400, 15910.65
888.0690, 14462.32
889.1990, 13350.92
890.3280, 12353.09
891.4570, 11528.02
892.5860, 10711.43
893.7140, 10275.34
894.8430, 9652.584
895.9710, 9256.859
897.1000, 8818.652
898.2280, 8197.569
899.3560, 7623.384
900.4830, 7194.014
901.6110, 6760.582
902.7380, 6265.741
903.8660, 6153.706
904.9930, 5816.205
906.1200, 5707.604
907.2460, 5339.981
908.3730, 5393.874
909.5000, 5252.010
910.6260, 5235.074
911.7520, 5219.758
912.8780, 4904.269
914.0040, 5003.574
915.1290, 4645.873
916.2550, 4501.189
917.3800, 4129.561
918.5050, 4042.595
919.6300, 3698.684
920.7550, 3337.628
921.8800, 3152.005
923.0040, 2916.230
924.1290, 2612.132
925.2530, 2420.102
926.3770, 2260.772
927.5010, 2105.016
928.6250, 2112.738
929.7480, 2074.370
930.8720, 1957.886
931.9950, 1908.238
933.1180, 1672.606
934.2410, 1738.565
935.3640, 1599.408
936.4860, 1560.188
937.6090, 1300.934
938.7310, 1370.196
939.8530, 1389.807
940.9750, 1191.141
942.0970, 1193.814
943.2180, 1070.245
944.3400, 966.9512
945.4610, 1034.673
946.5820, 935.4082
947.7030, 759.1602
948.8240, 594.9297
949.9450, 608.0264
951.0650, 772.5244
952.1860, 653.3535
953.3060, 658.2012
954.4260, 709.0674
955.5460, 732.9570
956.6650, 742.8789
957.7850, 907.8213
958.9040, 980.7832
960.0230, 1071.767
961.1420, 869.7705
962.2610, 1112.797
963.3800, 1204.846
964.4990, 1131.917
965.6170, 1392.011
966.7350, 1412.131
967.8530, 1489.274
968.9710, 1601.442
970.0890, 1844.785
971.2070, 2142.854
972.3240, 2467.099
973.4410, 2914.369
974.5580, 3301.667
975.6750, 3890.990
976.7920, 4528.362
977.9090, 5202.763
979.0250, 6281.198
980.1410, 7580.670
981.2580, 8432.171
982.3740, 9414.709
983.4890, 10229.28
984.6050, 10803.91
985.7200, 10718.58
986.8360, 10630.28
987.9510, 9819.019
989.0660, 9070.795
990.1810, 7965.604
991.2950, 6674.455
992.4100, 5852.344
993.5240, 4828.268
994.6390, 4199.240
995.7530, 3496.307
996.8660, 2848.441
997.9800, 2402.646
999.0940, 1975.905
1000.207, 1753.245
1001.320, 1533.644
1002.433, 1247.089
1003.546, 981.6172
1004.659, 797.2500
1005.772, 683.8154
1006.884, 458.5195
1007.996, 511.2783
1009.108, 433.0820
1010.220, 349.9385
1011.332, 284.8828
1012.444, 224.9355
1013.555, 257.0156
1014.666, 15.17285
1015.777, 191.3965
1016.888, 92.48633
1017.999, 52.87012
1019.110, 241.8398
1020.220, 317.4160
1021.331, 212.1211
1022.441, 371.0732
1023.551, 350.9961
1024.661, 473.8838
1025.770, 683.0273
1026.880, 728.4717
1027.989, 779.1494
1029.098, 687.5146
1030.207, 763.1738
1031.316, 757.8369
1032.425, 717.8037
1033.533, 622.6924
1034.642, 576.3643
1035.750, 547.3066
1036.858, 394.4229
1037.966, 329.6016
1039.073, 282.5000
1040.181, 239.3643
1041.288, 249.7041
1042.396, 256.2578
1043.503, 287.0176
1044.610, 349.7363
1045.716, 339.2168
1046.823, 353.0723
1047.929, 346.8506
1049.036, 318.5996
1050.142, 334.6973
1051.248, 266.8545
1052.353, 311.3301
1053.459, 277.6318
1054.564, 215.0146
1055.670, 337.8477
1056.775, 319.3799
1057.880, 232.9834
1058.985, 404.6309
1060.089, 544.3223
1061.194, 564.5146
1062.298, 402.0107
1063.402, 505.8740
1064.506, 448.2861
1065.610, 646.2109
1066.713, 685.1787
1067.817, 775.0537
1068.920, 929.1113
1070.023, 1026.214
1071.126, 1274.359
1072.229, 1580.545
1073.332, 1745.771
1074.435, 1814.723
1075.537, 2138.031
1076.639, 2357.577
1077.741, 2834.961
1078.843, 3100.385
1079.945, 3522.848
1081.046, 4049.723
1082.148, 4622.592
1083.249, 5324.646
1084.350, 6093.087
1085.451, 7051.738
1086.551, 8000.427
1087.652, 9065.010
1088.752, 10292.68
1089.853, 11499.50
1090.953, 12791.34
1092.053, 13674.21
1093.152, 14128.12
1094.252, 14244.06
1095.351, 13339.04
1096.451, 11977.05
1097.550, 10368.10
1098.649, 8454.400
1099.748, 6764.521
1100.846, 5358.676
1101.945, 4350.869
1103.043, 3555.093
1104.141, 2875.353
1105.239, 2630.646
1106.337, 2290.976
1107.434, 2094.336
1108.532, 1925.605
1109.629, 1733.084
1110.726, 1599.370
1111.823, 1462.135
1112.920, 1355.280
1114.017, 1250.716
1115.113, 1202.619
1116.210, 1133.558
1117.306, 1092.125
1118.402, 1162.290
1119.498, 1002.003
1120.593, 953.9229
1121.689, 1005.020
1122.784, 792.9697
1123.879, 860.7998
1124.974, 701.6582
1126.069, 490.5459
1127.164, 501.3916
1128.259, 375.7266
1129.353, 389.3350
1130.447, 441.3301
1131.541, 270.2939
1132.635, 187.3408
1133.729, 53.41113
1134.822, 219.6387
1135.916, 211.7578
1137.009, 13.90234
1138.102, 210.0684
1139.195, 114.2568
1140.288, 294.4697
1141.380, 141.7031
1142.473, 112.9570
1143.565, 54.72754
1144.657, 71.01270
1145.749, 21.36133
1146.841, 8.688477
1147.932, 75.96680
1149.024, 75.04883
1150.115, 28.58594
1151.206, 128.6836
1152.297, 82.37402
1153.388, 131.2139
1154.479, 55.21289
1155.569, 143.2539
1156.659, 121.1318
1157.750, 12.30566
1158.839, 128.8164
1159.929, 68.85742
1161.019, 5.277344
1162.108, 40.75391
1163.198, 11.17773
1164.287, 40.55957
1165.376, 31.09180
1166.465, 63.51562
1167.553, 88.03320
1168.642, 35.66211
1169.730, 23.97559
1170.818, 31.20703
1171.906, 46.55176
1172.994, 28.40820
1174.082, 126.3887
1175.170, 8.911133
1176.257, 49.78809
1177.344, 23.88672
1178.431, 12.80762
1179.518, 100.0723
1180.605, 123.7188
1181.691, 9.915039
1182.778, 5.108398
1183.864, 128.6807
1184.950, 21.16113
1186.036, 34.59082
1187.122, 91.64258
1188.207, 54.21289
1189.292, 50.81641
1190.378, 21.04395
1191.463, 7.710938
1192.548, 13.91699
1193.632, 6.707031
1194.717, 8.095703
1195.801, 69.09668
1196.886, 141.2842
1197.970, 36.53320
1199.054, 174.6250
1200.137, 60.77832
1201.221, 21.00098
1202.305, 123.1406
1203.388, 39.27539
1204.471, 5.598633
1205.554, 16.51270
1206.637, 15.38281
1207.719, 106.7002
1208.802, 149.1924
1209.884, 51.26074
1210.966, 6.321289
1212.048, 8.366211
1213.130, 5.399414
1214.212, 1.583984
1215.293, 56.41309
1216.374, 56.40527
1217.456, 0.3847660
1218.536, 36.65527
1219.617, 28.30664
1220.698, 114.2256
1221.778, 54.13281
1222.859, 126.4102
1223.939, 289.9150
1225.019, 133.7881
1226.099, 170.6475
1227.178, 90.49414
1228.258, 28.32812
1229.337, 69.14551
1230.417, 119.9561
1231.496, 86.51270
1232.574, 116.3057
1233.653, 80.33301
1234.732, 69.09570
1235.810, 72.84277
1236.888, 54.04590
1237.966, 28.70898
1239.044, 49.95703
1240.122, 6.607422
1241.199, 18.22363
1242.277, 59.80957
1243.354, 18.37988
1244.431, 19.91699
1245.508, 27.57617
1246.585, 4.125000
1247.661, 46.28027
1248.738, 89.66113
1249.814, 32.02344
1250.890, 56.35645
1251.966, 14.66504
1253.042, 97.93555
1254.117, 82.18555
1255.193, 144.4170
1256.268, 106.3721
1257.343, 1.265625
1258.418, 4.210938
1259.493, 99.79004
1260.567, 7.227539
1261.642, 118.6992
1262.716, 144.6055
1263.790, 86.48926
1264.864, 176.3506
1265.938, 109.1895
1267.011, 173.1270
1268.085, 136.9209
1269.158, 147.6934
1270.231, 147.1416
1271.304, 183.1680
1272.377, 115.8730
1273.450, 54.49707
1274.522, 19.14062
1275.594, 206.7334
1276.666, 206.3027
1277.738, 28.04395
1278.810, 171.5420
1279.882, 77.54102
1280.953, 1.8555000E-02
1282.025, 179.3594
1283.096, 132.5654
1284.167, 14.10254
1285.238, 138.6475
1286.308, 66.88672
1287.379, 123.8926
1288.449, 9.268555
1289.519, 20.06738
1290.589, 14.87988
1291.659, 239.8770
1292.729, 9.631836
1293.798, 127.5010
1294.868, 65.63184
1295.937, 67.55078
1297.006, 143.3838
1298.075, 101.2109
1299.143, 55.36914
1300.212, 104.2373
1301.280, 48.50195
1302.348, 42.16406
1303.416, 165.6631
1304.484, 221.2891
1305.552, 53.17773
1306.620, 148.7090
1307.687, 23.81836
1308.754, 46.18262
1309.821, 34.60449
1310.888, 41.84570
1311.955, 90.10254
1313.021, 113.4971
1314.088, 159.7822
1315.154, 172.6836
1316.220, 106.0342
1317.286, 104.2393
1318.352, 257.4160
1319.417, 157.5654
1320.483, 227.2441
1321.548, 216.6387
1322.613, 177.6836
1323.678, 192.3027
1324.743, 173.4102
1325.807, 173.5566
1326.872, 192.5205
1327.936, 221.4697
1329.000, 152.3965
1330.064, 261.3711
1331.128, 235.2471
1332.191, 319.0977
1333.255, 339.2402
1334.318, 246.0391
1335.381, 217.6514
1336.444, 111.8193
1337.507, 215.5469
1338.569, 221.2490
1339.632, 278.5527
1340.694, 302.0752
1341.756, 217.0244
1342.818, 278.8008
1343.880, 364.0967
1344.941, 257.6494
1346.003, 409.3203
1347.064, 173.1553
1348.125, 394.6123
1349.186, 192.0635
1350.247, 361.0361
1351.308, 288.4375
1352.368, 292.8135
1353.428, 242.2480
1354.489, 271.5752
1355.549, 267.8789
1356.608, 277.9492
1357.668, 279.3027
1358.727, 347.6416
1359.787, 452.8477
1360.846, 283.0303
1361.905, 360.1875
1362.964, 233.4736
1364.022, 377.7188
1365.081, 477.8057
1366.139, 430.9932
1367.197, 370.5293
1368.255, 351.7188
1369.313, 242.4385
1370.371, 248.4062
1371.428, 309.9443
1372.486, 381.4658
1373.543, 301.0508
1374.600, 304.0146
1375.657, 331.4111
1376.713, 330.2510
1377.770, 180.8906
1378.826, 247.3633
1379.882, 407.9922
1380.938, 289.7480
1381.994, 491.4854
1383.050, 380.2031
1384.106, 168.9697
1385.161, 310.2549
1386.216, 215.4170
1387.271, 292.1533
1388.326, 277.0635
1389.381, 184.6875
1390.435, 274.2783
1391.490, 189.7041
1392.544, 182.2432
1393.598, 130.7607
1394.652, 248.2607
1395.705, 336.7422
1396.759, 237.2246
1397.812, 272.6650
1398.866, 242.0635
1399.919, 357.4062
1400.972, 278.3164
1402.024, 344.6182
1403.077, 316.9482
1404.129, 219.2344
1405.181, 315.8203
1406.233, 265.0557
1407.285, 233.3809
1408.337, 147.2832
1409.389, 187.5068
1410.440, 215.6465
1411.491, 82.67773
1412.542, 326.8311
1413.593, 192.8496
1414.644, 141.8916
1415.695, 284.4404
1416.745, 190.3525
1417.795, 127.3174
1418.845, 137.4121
1419.895, 230.3965
1420.945, 146.3730
1421.995, 167.2314
1423.044, 236.1904
1424.093, 183.5625
1425.142, 284.3242
1426.191, 167.9219
1427.240, 227.6201
1428.289, 169.9990
1429.337, 317.1250
1430.385, 111.0957
1431.433, 188.0537
1432.481, 295.6191
1433.529, 251.5430
1434.577, 293.9502
1435.624, 236.4551
1436.672, 257.4199
1437.719, 146.4941
1438.766, 89.77344
1439.812, 251.3398
1440.859, 204.1201
1441.905, 79.88672
1442.952, 213.2910
1443.998, 125.5508
1445.044, 116.1514
1446.090, 203.6885
1447.135, 169.2119
1448.181, 142.7119
1449.226, 7.229492
1450.271, 82.92285
1451.316, 297.5889
1452.361, 138.6514
1453.405, 313.7529
1454.450, 253.8232
1455.494, 83.86816
1456.538, 248.4385
1457.582, 210.4141
1458.626, 150.3643
1459.670, 212.2871
1460.713, 91.17676
1461.757, 36.01367
1462.800, 148.8467
1463.843, 163.6426
1464.886, 144.4043
1465.928, 139.1328
1466.971, 263.7959
1468.013, 140.4141
1469.055, 13.99707
1470.097, 153.5410
1471.139, 128.0908
1472.181, 20.36523
1473.222, 135.1602
1474.263, 115.7031
1475.305, 19.27246
1476.346, 113.8242
1477.386, 326.3711
1478.427, 67.89941
1479.468, 211.4531
1480.508, 177.0977
1481.548, 85.75684
1482.588, 20.58594
1483.628, 20.95020
1484.668, 91.49121
1485.707, 197.0762
1486.747, 178.6387
1487.786, 47.18652
1488.825, 48.76172
1489.864, 86.33301
1490.902, 269.9072
1491.941, 10.52148
1492.979, 209.6377
1494.017, 91.28125
1495.055, 237.9492
1496.093, 129.7148
1497.131, 94.52637
1498.168, 320.3594
1499.206, 193.1992
1500.243, 71.03711
1501.280, 133.8936
1502.317, 191.7324
1503.354, 244.6299
1504.390, 197.5518
1505.426, 182.5293
1506.463, 165.2100
1507.499, 130.0107
1508.535, 89.21582
1509.570, 88.25879
1510.606, 40.31348
1511.641, 46.16113
1512.676, 27.01465
1513.711, 63.56445
1514.746, 66.99121
1515.781, 158.9072
1516.816, 111.9229
1517.850, 145.9375
1518.884, 188.9395
1519.918, 108.9473
1520.952, 64.96582
1521.986, 103.2607
1523.019, 81.73633
1524.053, 156.6494
1525.086, 242.1729
1526.119, 145.8643
1527.152, 182.7793
1528.185, 148.9375
1529.217, 126.8066
1530.250, 117.4697
1531.282, 70.56543
1532.314, 164.9297
1533.346, 12.12598
1534.377, 126.4785
1535.409, 113.0684
1536.440, 79.64062
1537.472, 38.12207
1538.503, 71.64551
1539.534, 152.1357
1540.564, 130.5928
1541.595, 101.0117
1542.625, 168.4189
1543.656, 1.651367
1544.686, 155.8604
1545.716, 157.0850
1546.745, 39.26270
1547.775, 15.68848
1548.804, 27.63867
1549.834, 188.9688
1550.863, 169.3799
1551.892, 307.1846
1552.920, 313.0352
1553.949, 220.2207
1554.977, 217.8135
1556.006, 102.0713
1557.034, 155.6279
1558.062, 29.21680
1559.089, 209.9023
1560.117, 134.2021
1561.144, 11.00488
1562.172, 72.14355
1563.199, 185.9150
1564.226, 242.9795
1565.252, 191.6152
1566.279, 235.2734
1567.305, 188.6699
1568.332, 181.0225
1569.358, 111.1279
1570.384, 88.30664
1571.409, 2.781250
1572.435, 0.0000000E+00
##END=



