##NAMES=Columbite-(Fe)
##RRUFFID=R060001
##IDEAL CHEMISTRY=Fe^2+^Nb_2_O_6_
##LOCALITY=Gypsy mine, Minas Gerais, Brazil
##OWNER=RRUFF
##SOURCE=Eric Van Valkenburg
##DESCRIPTION=Steel gray fragment with internal red hints
##STATUS=The identification of this mineral has been confirmed by X-ray diffraction and chemical analysis
##URL=rruff.info/R060001
##MEASURED CHEMISTRY=(Fe^2+^_0.52_Mn^2+^_0.48_)_Σ=1_(Nb_1.61_Ta_0.39_)_Σ=2_O_6_
##PIN_ID=L01130
##ORIENTATION=Laser parallel to a* (1 0 0). Fiducial mark perpendicular to laser is parallel to -b [0 -1 0]
114.1820, 0.0000000E+00
115.4170, 77.86621
116.6530, 135.3950
117.8880, 243.0337
119.1230, 286.4956
120.3580, 504.7891
121.5920, 924.5195
122.8270, 1156.602
124.0610, 1679.761
125.2950, 1910.717
126.5290, 2380.596
127.7630, 2861.208
128.9970, 3320.513
130.2300, 3690.756
131.4640, 3881.096
132.6970, 4029.805
133.9300, 4093.680
135.1630, 4049.808
136.3950, 4059.806
137.6280, 3956.209
138.8600, 3784.312
140.0920, 3377.871
141.3240, 2713.244
142.5560, 2227.762
143.7880, 1754.276
145.0190, 1442.796
146.2510, 1151.462
147.4820, 860.1309
148.7130, 589.5110
149.9440, 465.4006
151.1750, 464.6470
152.4050, 366.0723
153.6360, 272.6733
154.8660, 136.4456
156.0960, 56.38086
157.3260, 53.52954
158.5560, 51.29883
159.7850, 164.9412
161.0150, 94.46802
162.2440, 18.89258
163.4730, 67.23096
164.7020, 22.47217
165.9310, 49.63721
167.1590, 69.61523
168.3880, 34.71191
169.6160, 22.90015
170.8440, 13.79834
172.0720, 30.73267
173.3000, 8.830566
174.5280, 2.900879
175.7550, 15.41260
176.9820, 28.12671
178.2100, 40.63281
179.4370, 60.07471
180.6630, 38.45532
181.8900, 78.77954
183.1170, 43.05029
184.3430, 131.2708
185.5690, 190.4438
186.7950, 209.5725
188.0210, 310.6843
189.2470, 380.3564
190.4720, 480.1841
191.6970, 567.5908
192.9230, 650.0913
194.1480, 744.6736
195.3730, 967.3215
196.5970, 1037.022
197.8220, 1136.763
199.0460, 1338.534
200.2700, 1613.306
201.4940, 1643.064
202.7180, 1742.802
203.9420, 1449.516
205.1660, 1196.207
206.3890, 1170.875
207.6120, 1012.523
208.8350, 956.1401
210.0580, 874.6150
211.2810, 781.8298
212.5040, 674.4690
213.7260, 563.1375
214.9480, 498.7324
216.1700, 350.6990
217.3920, 284.5696
218.6140, 257.4858
219.8360, 119.6995
221.0570, 218.9214
222.2790, 139.4170
223.5000, 187.0352
224.7210, 185.0386
225.9410, 170.4917
227.1620, 90.21362
228.3820, 144.7949
229.6030, 265.6292
230.8230, 192.1985
232.0430, 264.8101
233.2630, 232.6711
234.4820, 328.5520
235.7020, 286.8486
236.9210, 361.7305
238.1400, 413.8413
239.3590, 444.2224
240.5780, 397.9700
241.7970, 442.8779
243.0150, 446.4736
244.2340, 445.1196
245.4520, 493.1057
246.6700, 440.4653
247.8880, 480.8042
249.1060, 479.2632
250.3230, 417.2600
251.5400, 378.2903
252.7580, 384.3259
253.9750, 345.3672
255.1920, 399.4136
256.4080, 411.4651
257.6250, 425.5217
258.8410, 451.9329
260.0580, 446.2212
261.2740, 496.9226
262.4900, 502.0081
263.7050, 551.4446
264.9210, 701.0327
266.1360, 617.6631
267.3520, 741.2676
268.5670, 708.7905
269.7820, 817.2063
270.9960, 825.5081
272.2110, 906.6748
273.4250, 990.6353
274.6400, 1057.389
275.8540, 1053.955
277.0680, 1044.347
278.2810, 1059.588
279.4950, 1062.697
280.7090, 1037.692
281.9220, 1009.544
283.1350, 941.9734
284.3480, 875.7827
285.5610, 862.3054
286.7730, 829.5959
287.9860, 766.8572
289.1980, 698.5815
290.4100, 573.0574
291.6220, 530.0376
292.8340, 453.9956
294.0460, 396.9438
295.2570, 358.8916
296.4690, 273.8616
297.6800, 314.8508
298.8910, 323.8599
300.1020, 281.8994
301.3120, 272.5696
302.5230, 179.6013
303.7330, 168.6516
304.9440, 133.9487
306.1540, 154.2263
307.3630, 104.0234
308.5730, 140.6606
309.7830, 43.37109
310.9920, 80.97461
312.2010, 32.97144
313.4100, 30.58838
314.6190, 84.85986
315.8280, 66.98560
317.0370, 72.46265
318.2450, 13.90991
319.4530, 101.7642
320.6610, 2.622559
321.8690, 73.44678
323.0770, 51.75488
324.2850, 34.23291
325.4920, 62.13867
326.6990, 28.28223
327.9060, 57.26685
329.1130, 10.18066
330.3200, 41.04858
331.5270, 67.73828
332.7330, 51.45532
333.9390, 101.1958
335.1450, 103.9736
336.3510, 94.78955
337.5570, 12.64258
338.7630, 83.51074
339.9680, 8.413086
341.1740, 52.66895
342.3790, 72.25488
343.5840, 17.21069
344.7890, 48.18481
345.9930, 11.81519
347.1980, 7.195068
348.4020, 29.77930
349.6060, 80.74658
350.8100, 52.70801
352.0140, 93.66431
353.2180, 167.6150
354.4210, 192.5608
355.6250, 143.5017
356.8280, 154.4392
358.0310, 243.3708
359.2340, 249.2966
360.4360, 320.2170
361.6390, 326.1345
362.8410, 415.0449
364.0430, 431.9431
365.2450, 519.7285
366.4470, 574.6187
367.6490, 630.4463
368.8510, 687.2876
370.0520, 758.0312
371.2530, 871.6299
372.4540, 941.6851
373.6550, 1131.081
374.8560, 1095.628
376.0560, 1342.101
377.2570, 1388.610
378.4570, 1587.122
379.6570, 1777.636
380.8570, 1901.153
382.0570, 2136.674
383.2560, 2348.196
384.4560, 2582.722
385.6550, 2769.250
386.8540, 2984.782
388.0530, 3151.315
389.2520, 3432.851
390.4510, 3582.390
391.6490, 3826.932
392.8470, 4009.476
394.0450, 4064.023
395.2430, 4164.573
396.4410, 4257.125
397.6390, 4239.680
398.8360, 4173.238
400.0340, 3995.798
401.2310, 3808.362
402.4280, 3622.927
403.6250, 3386.497
404.8210, 3105.067
406.0180, 2859.630
407.2140, 2647.177
408.4100, 2503.710
409.6060, 2248.225
410.8020, 2107.724
411.9980, 1928.206
413.1930, 1788.672
414.3890, 1746.121
415.5840, 1536.555
416.7790, 1448.974
417.9740, 1324.380
419.1680, 1315.772
420.3630, 1282.152
421.5570, 1248.521
422.7510, 1143.880
423.9450, 1000.229
425.1390, 1067.568
426.3330, 961.8984
427.5270, 1021.222
428.7200, 980.5425
429.9130, 917.8599
431.1060, 907.2678
432.2990, 879.5823
433.4920, 856.5840
434.6840, 859.6616
435.8770, 823.7456
437.0690, 805.8511
438.2610, 771.7793
439.4530, 829.4309
440.6450, 748.6421
441.8360, 780.2222
443.0280, 752.4985
444.2190, 903.2134
445.4100, 922.5454
446.6010, 857.4368
447.7920, 812.2812
448.9820, 745.6665
450.1730, 767.0288
451.3630, 873.5684
452.5530, 843.0811
453.7430, 834.9795
454.9330, 883.8125
456.1230, 777.1001
457.3120, 903.3455
458.5010, 903.7334
459.6910, 909.4551
460.8800, 1008.508
462.0680, 973.0615
463.2570, 1027.663
464.4460, 1039.660
465.6340, 1022.671
466.8220, 1091.892
468.0100, 1075.710
469.1980, 1129.892
470.3860, 1167.977
471.5730, 1222.477
472.7600, 1205.032
473.9480, 1224.586
475.1350, 1144.507
476.3210, 1252.415
477.5080, 1199.173
478.6950, 1245.752
479.8810, 1299.904
481.0670, 1149.210
482.2530, 1136.066
483.4390, 1260.636
484.6250, 1145.201
485.8100, 1114.764
486.9960, 1137.783
488.1810, 1112.861
489.3660, 1139.612
490.5510, 1062.269
491.7360, 1059.548
492.9200, 1069.125
494.1050, 1041.705
495.2890, 1057.287
496.4730, 1029.593
497.6570, 999.7153
498.8400, 977.0466
500.0240, 952.6384
501.2070, 917.2332
502.3910, 952.8306
503.5740, 935.4316
504.7570, 918.0356
505.9400, 978.6436
507.1220, 919.2546
508.3050, 960.8701
509.4870, 1030.490
510.6690, 1023.113
511.8510, 1106.742
513.0330, 1036.375
514.2140, 1143.014
515.3960, 1231.661
516.5770, 1244.315
517.7580, 1378.976
518.9390, 1442.643
520.1200, 1503.317
521.3010, 1616.999
522.4810, 1758.687
523.6610, 1858.382
524.8420, 1839.084
526.0220, 1946.795
527.2010, 1914.512
528.3810, 2006.238
529.5610, 1935.971
530.7400, 2006.712
531.9190, 1993.461
533.0980, 1910.218
534.2770, 1723.984
535.4560, 1700.758
536.6340, 1648.541
537.8120, 1543.332
538.9910, 1461.133
540.1690, 1257.942
541.3460, 1207.762
542.5240, 1114.591
543.7020, 1043.430
544.8790, 985.2791
546.0560, 817.1387
547.2330, 742.0088
548.4100, 664.8896
549.5870, 609.7817
550.7630, 503.6853
551.9400, 512.6006
553.1160, 418.5283
554.2920, 372.4685
555.4680, 361.4209
556.6440, 398.3862
557.8190, 298.3650
558.9950, 268.3574
560.1700, 291.3635
561.3450, 170.3835
562.5200, 214.4180
563.6950, 194.4670
564.8690, 114.5305
566.0440, 144.6094
567.2180, 101.7031
568.3920, 152.8127
569.5660, 58.93799
570.7400, 100.0789
571.9130, 28.76416
573.0870, 48.38867
574.2600, 46.55786
575.4330, 17.25586
576.6060, 4.068115
577.7790, 24.87231
578.9520, 41.67749
580.1240, 55.49048
581.2960, 28.31714
582.4690, 36.14282
583.6410, 86.97656
584.8120, 39.83496
585.9840, 32.69800
587.1560, 81.56274
588.3270, 62.45044
589.4980, 109.3518
590.6690, 53.28857
591.8400, 75.23438
593.0110, 130.1990
594.1810, 52.20679
595.3510, 119.2207
596.5220, 0.7282710
597.6920, 22.30566
598.8610, 75.33105
600.0310, 83.37256
601.2010, 89.43286
602.3700, 131.5146
603.5390, 62.63281
604.7080, 17.24072
605.8770, 31.85791
607.0460, 16.95068
608.2140, 56.03149
609.3830, 0.8854980
610.5510, 51.17847
611.7190, 4.241211
612.8870, 0.7141110
614.0550, 11.69897
615.2220, 0.7238770
616.3900, 2.793945
617.5570, 21.90601
618.7240, 89.07446
619.8910, 74.30029
621.0580, 136.5808
622.2240, 88.89551
623.3910, 136.2622
624.5570, 124.6621
625.7230, 148.0854
626.8890, 137.5588
628.0550, 242.0684
629.2200, 209.6216
630.3860, 226.2036
631.5510, 330.8191
632.7160, 279.4607
633.8810, 288.1265
635.0460, 260.8176
636.2100, 331.5330
637.3750, 389.2739
638.5390, 290.0393
639.7030, 455.8298
640.8670, 295.6460
642.0310, 298.4878
643.1950, 338.3552
644.3580, 262.2483
645.5210, 378.1672
646.6850, 304.1125
647.8480, 276.0840
649.0100, 302.0820
650.1730, 331.1062
651.3350, 242.1575
652.4980, 287.2354
653.6600, 230.3401
654.8220, 310.4719
655.9840, 312.6309
657.1450, 320.8174
658.3070, 319.0310
659.4680, 240.2725
660.6300, 297.5413
661.7910, 309.8381
662.9510, 284.1628
664.1120, 388.5156
665.2730, 307.8962
666.4330, 232.3052
667.5930, 338.7424
668.7530, 312.2080
669.9130, 257.7068
671.0730, 376.2336
672.2320, 348.7903
673.3920, 352.3755
674.5510, 301.0117
675.7100, 339.6809
676.8690, 320.3933
678.0280, 275.1460
679.1860, 432.9329
680.3450, 330.7878
681.5030, 322.6802
682.6610, 372.6201
683.8190, 329.6287
684.9770, 386.6709
686.1340, 344.7625
687.2920, 365.9209
688.4490, 378.1216
689.6060, 390.8657
690.7630, 483.6880
691.9200, 448.0400
693.0760, 480.4292
694.2330, 505.8691
695.3890, 482.3667
696.5450, 553.9121
697.7010, 582.5034
698.8570, 519.1270
700.0130, 512.7891
701.1680, 635.4868
702.3230, 587.2280
703.4780, 635.0042
704.6330, 657.8303
705.7880, 704.6956
706.9430, 647.5994
708.0970, 740.5425
709.2520, 784.5176
710.4060, 730.5479
711.5600, 840.5168
712.7140, 813.6118
713.8670, 840.7551
715.0210, 890.4800
716.1740, 975.9175
717.3270, 894.3826
718.4800, 878.0596
719.6330, 935.0515
720.7860, 1007.516
721.9380, 970.6477
723.0910, 1048.924
724.2430, 1000.192
725.3950, 1128.687
726.5470, 1124.661
727.6980, 1130.743
728.8500, 1170.343
730.0010, 1172.055
731.1530, 1200.653
732.3040, 1322.335
733.4550, 1411.300
734.6050, 1375.738
735.7560, 1374.362
736.9060, 1438.029
738.0560, 1394.088
739.2060, 1525.789
740.3560, 1526.239
741.5060, 1581.487
742.6560, 1622.517
743.8050, 1765.614
744.9540, 1821.314
746.1030, 1822.752
747.2520, 1758.417
748.4010, 1838.592
749.5500, 1907.655
750.6980, 2018.795
751.8460, 1994.095
752.9950, 2086.491
754.1420, 2125.871
755.2900, 2244.315
756.4380, 2181.817
757.5850, 2254.355
758.7330, 2387.937
759.8800, 2542.554
761.0270, 2534.276
762.1730, 2598.096
763.3200, 2535.620
764.4670, 2601.380
765.6130, 2602.176
766.7590, 2615.005
767.9050, 2619.868
769.0510, 2665.764
770.1960, 2678.694
771.3420, 2704.657
772.4870, 2870.652
773.6320, 2819.681
774.7770, 2904.744
775.9220, 2817.838
777.0670, 2946.965
778.2110, 2858.124
779.3560, 2810.315
780.5000, 2911.538
781.6440, 2931.795
782.7880, 2977.083
783.9320, 2976.404
785.0750, 2989.758
786.2180, 2966.142
787.3620, 2971.558
788.5050, 2960.005
789.6480, 2977.483
790.7900, 3023.993
791.9330, 3099.533
793.0750, 3033.103
794.2170, 2971.704
795.3590, 3022.334
796.5010, 2936.996
797.6430, 2972.686
798.7850, 3107.407
799.9260, 3057.156
801.0670, 3054.935
802.2080, 3014.743
803.3490, 2950.579
804.4900, 3065.445
805.6310, 3176.339
806.7710, 3141.874
807.9110, 3129.825
809.0510, 3206.836
810.1910, 3263.843
811.3310, 3347.753
812.4710, 3238.354
813.6100, 3273.488
814.7490, 3242.767
815.8880, 3332.752
817.0270, 3492.858
818.1660, 3539.522
819.3050, 3649.726
820.4430, 3725.767
821.5820, 3754.857
822.7200, 3849.281
823.8580, 3878.198
824.9950, 3946.063
826.1330, 3966.539
827.2710, 4164.663
828.4080, 4247.952
829.5450, 4243.594
830.6820, 4434.606
831.8190, 4425.235
832.9560, 4582.707
834.0920, 4618.474
835.2280, 4793.356
836.3650, 4951.474
837.5010, 5052.979
838.6360, 5171.334
839.7720, 5355.745
840.9080, 5495.657
842.0430, 5768.051
843.1780, 5928.320
844.3130, 6073.712
845.4480, 6316.643
846.5830, 6672.927
847.7170, 6976.682
848.8520, 7420.953
849.9860, 7801.723
851.1200, 8038.947
852.2540, 8653.888
853.3870, 9096.637
854.5210, 9540.046
855.6540, 10223.39
856.7880, 11015.41
857.9210, 11696.24
859.0540, 12552.37
860.1860, 13451.77
861.3190, 14407.23
862.4510, 15639.61
863.5840, 16798.38
864.7160, 18167.68
865.8480, 19888.25
866.9790, 21368.78
868.1110, 23079.45
869.2420, 24719.73
870.3740, 26452.41
871.5050, 27896.93
872.6360, 29300.55
873.7660, 29977.43
874.8970, 30406.96
876.0280, 29748.51
877.1580, 29043.04
878.2880, 27268.50
879.4180, 25390.12
880.5480, 22788.55
881.6770, 20285.07
882.8070, 17660.64
883.9360, 15035.24
885.0650, 12760.06
886.1940, 10798.25
887.3230, 8896.449
888.4520, 7535.591
889.5800, 6006.094
890.7090, 5309.587
891.8370, 4422.118
892.9650, 3884.120
894.0930, 3303.402
895.2200, 2875.289
896.3480, 2411.036
897.4750, 2170.854
898.6020, 1989.076
899.7290, 1735.073
900.8560, 1570.707
901.9830, 1345.353
903.1090, 1222.922
904.2360, 1169.470
905.3620, 1045.082
906.4880, 887.6199
907.6140, 841.2808
908.7400, 746.9136
909.8650, 641.5564
910.9900, 546.0410
912.1160, 486.5684
913.2410, 489.1208
914.3660, 414.5967
915.4900, 389.1577
916.6150, 274.8325
917.7390, 206.4390
918.8640, 252.3271
919.9880, 257.8606
921.1120, 221.4597
922.2350, 172.0032
923.3590, 110.4448
924.4820, 80.09961
925.6060, 193.5308
926.7290, 177.0237
927.8520, 135.4431
928.9740, 164.9353
930.0970, 110.3909
931.2190, 82.79028
932.3420, 80.20117
933.4640, 49.34863
934.5860, 90.01782
935.7080, 37.38574
936.8290, 82.74561
937.9510, 112.0964
939.0720, 49.43823
940.1930, 57.77002
941.3140, 17.90771
942.4350, 11.39624
943.5560, 0.6896970
944.6760, 63.97144
945.7960, 81.71338
946.9170, 11.49658
948.0370, 50.29834
949.1560, 35.14038
950.2760, 13.01440
951.3960, 140.9109
952.5150, 20.89771
953.6340, 59.90869
954.7530, 136.9688
955.8720, 6.119141
956.9910, 59.29126
958.1090, 129.5142
959.2280, 31.82593
960.3460, 104.0432
961.4640, 33.46948
962.5820, 50.79688
963.6990, 7.452148
964.8170, 59.99683
965.9340, 84.59668
967.0510, 49.12231
968.1690, 36.84326
969.2850, 13.39014
970.4020, 8.395996
971.5190, 2.367188
972.6350, 26.05859
973.7510, 6.054688
974.8670, 48.85791
975.9830, 7.809082
977.0990, 4.811035
978.2150, 5.845947
979.3300, 32.49683
980.4450, 66.00464
981.5600, 57.84009
982.6750, 21.70605
983.7900, 39.38086
984.9050, 28.36597
986.0190, 50.26953
987.1340, 36.02637
988.2480, 25.62329
989.3620, 4.260742
990.4750, 58.92603
991.5890, 17.49634
992.7020, 53.12158
993.8160, 24.35938
994.9290, 37.10864
996.0420, 44.55151
997.1550, 27.96973
998.2670, 57.36011
999.3800, 42.72705
1000.492, 47.11279
1001.604, 41.43481
1002.716, 79.72363
1003.828, 3.936768
1004.940, 62.45654
1006.051, 56.85815
1007.163, 43.15869
1008.274, 70.20483
1009.385, 72.33936
1010.496, 24.43774
1011.606, 99.50366
1012.717, 78.26733
1013.827, 113.6118
1014.937, 96.70215
1016.047, 91.66650
1017.157, 91.79541
1018.267, 70.02271
1019.377, 48.01733
1020.486, 48.95630
1021.595, 52.77954
1022.704, 126.5723
1023.813, 131.3430
1024.922, 125.0898
1026.030, 65.81128
1027.139, 19.50391
1028.247, 77.28589
1029.355, 92.90820
1030.463, 85.53345
1031.571, 57.20996
1032.678, 75.33545
1033.786, 118.0183
1034.893, 117.0537
1036.000, 136.5493
1037.107, 142.9558
1038.214, 128.7471
1039.321, 147.1201
1040.427, 118.4668
1041.533, 125.8013
1042.639, 124.2300
1043.745, 175.7256
1044.851, 152.9807
1045.957, 147.1941
1047.062, 175.4243
1048.168, 145.5842
1049.273, 119.9189
1050.378, 135.1902
1051.482, 95.26831
1052.587, 152.3159
1053.692, 136.3364
1054.796, 149.5078
1055.900, 201.5469
1057.004, 123.6133
1058.108, 228.7122
1059.212, 159.6240
1060.315, 194.8401
1061.418, 158.7878
1062.522, 166.7122
1063.625, 201.5403
1064.728, 175.4316
1065.830, 167.3367
1066.933, 233.0283
1068.035, 208.6929
1069.137, 259.4502
1070.239, 201.1724
1071.341, 251.7922
1072.443, 215.3477
1073.545, 210.8757
1074.646, 238.7646
1075.747, 264.2388
1076.848, 242.7026
1077.949, 176.1440
1079.050, 247.8643
1080.150, 190.8840
1081.251, 245.1790
1082.351, 257.5239
1083.451, 210.9712
1084.551, 176.2969
1085.651, 255.9258
1086.750, 224.1833
1087.850, 286.4854
1088.949, 177.0349
1090.048, 177.1406
1091.147, 205.6626
1092.246, 114.2673
1093.345, 179.2109
1094.443, 172.5042
1095.541, 180.6318
1096.639, 155.4028
1097.737, 134.9604
1098.835, 89.76636
1099.933, 158.6980
1101.030, 146.3630
1102.128, 126.0459
1103.225, 178.3755
1104.322, 170.2583
1105.419, 174.4314
1106.515, 167.3994
1107.612, 105.8643
1108.708, 136.9990
1109.804, 114.1829
1110.900, 165.1631
1111.996, 146.5894
1113.092, 100.6565
1114.187, 91.40894
1115.283, 74.19653
1116.378, 116.0391
1117.473, 54.17212
1118.568, 111.6768
1119.662, 113.2620
1120.757, 90.36304
1121.851, 74.36035
1122.946, 117.7141
1124.040, 71.24170
1125.134, 128.4619
1126.227, 93.53394
1127.321, 173.4490
1128.414, 137.6863
1129.508, 120.0720
1130.601, 101.1672
1131.693, 76.07983
1132.786, 85.01270
1133.879, 88.77026
1134.971, 68.44312
1136.064, 43.08447
1137.156, 60.88257
1138.248, 68.73169
1139.339, 68.81958
1140.431, 80.84180
1141.522, 85.82593
1142.614, 81.78467
1143.705, 91.84277
1144.796, 68.73608
1145.887, 57.49829
1146.977, 91.83984
1148.068, 35.80713
1149.158, 17.71899
1150.248, 54.43848
1151.338, 59.79370
1152.428, 126.1860
1153.518, 114.8215
1154.607, 124.1396
1155.696, 95.50854
1156.785, 109.4180
1157.874, 97.57837
1158.963, 45.14990
1160.052, 78.77856
1161.141, 68.43481
1162.229, 48.98145
1163.317, 35.88940
1164.405, 31.67114
1165.493, 3.193604
1166.581, 63.57910
1167.668, 18.35986
1168.756, 44.07324
1169.843, 79.70728
1170.930, 103.5134
1172.017, 68.06665
1173.103, 38.63721
1174.190, 18.96729
1175.276, 67.65625
1176.363, 103.2822
1177.449, 59.86597
1178.535, 78.64355
1179.620, 21.18457
1180.706, 29.24268
1181.791, 70.40820
1182.877, 91.57080
1183.962, 94.73389
1185.047, 24.66064
1186.131, 49.06372
1187.216, 35.75439
1188.300, 20.60547
1189.385, 58.38159
1190.469, 0.9597170
1191.553, 36.00586
1192.637, 34.35474
1193.720, 50.55859
1194.804, 28.48682
1195.887, 18.11646
1196.970, 91.42285
1198.053, 65.84326
1199.136, 32.24609
1200.219, 33.73340
1201.301, 51.19556
1202.383, 64.56201
1203.465, 72.13086
1204.547, 97.35645
1205.629, 92.85059
1206.711, 45.32080
1207.792, 51.63696
1208.874, 8.579102
1209.955, 10.26123
1211.036, 58.23560
1212.117, 8.547119
1213.198, 62.79663
1214.278, 60.18530
1215.359, 15.79834
1216.439, 47.52563
1217.519, 62.85815
1218.599, 24.22705
1219.678, 28.58252
1220.758, 49.94702
1221.837, 41.33960
1222.917, 83.60254
1223.996, 64.01978
1225.075, 58.44043
1226.153, 69.87036
1227.232, 12.29785
1228.310, 43.94897
1229.389, 64.32104
1230.467, 41.85010
1231.545, 9.321533
1232.622, 36.78564
1233.700, 84.24878
1234.777, 14.73950
1235.855, 105.2031
1236.932, 66.89209
1238.009, 10.61890
1239.086, 28.10889
1240.162, 45.57812
1241.239, 100.0642
1242.315, 63.52783
1243.391, 9.006348
1244.467, 60.43750
1245.543, 121.7937
1246.619, 59.57910
1247.694, 21.96924
1248.769, 47.43433
1249.844, 6.024658
1250.919, 60.48218
1251.994, 42.90991
1253.069, 51.37329
1254.144, 114.8831
1255.218, 23.33789
1256.292, 95.80054
1257.366, 90.38501
1258.440, 76.87793
1259.514, 66.33398
1260.587, 31.89844
1261.661, 35.29321
1262.734, 52.72217
1263.807, 10.15332
1264.880, 1.473877
1265.952, 17.14355
1267.025, 49.29883
1268.097, 10.35010
1269.170, 63.99390
1270.242, 16.38452
1271.314, 68.78003
1272.385, 64.19409
1273.457, 47.67651
1274.528, 36.00562
1275.600, 38.41211
1276.671, 33.24658
1277.742, 44.57227
1278.812, 34.61987
1279.883, 32.00073
1280.954, 19.27075
1282.024, 64.98682
1283.094, 14.63647
1284.164, 4.299805
1285.234, 44.51562
1286.303, 0.8396000
1287.373, 77.57202
1288.442, 16.86426
1289.511, 40.18237
1290.580, 48.55249
1291.649, 56.86182
1292.718, 2.277588
1293.786, 11.15137
1294.855, 48.65991
1295.923, 25.82837
1296.991, 89.06177
1298.059, 68.22070
1299.126, 15.61621
1300.194, 49.88599
1301.261, 95.35718
1302.328, 14.51855
1303.395, 42.50342
1304.462, 66.82593
1305.529, 56.06714
1306.596, 11.26025
1307.662, 74.63452
1308.728, 15.76636
1309.794, 6.177002
1310.860, 29.03857
1311.926, 31.25098
1312.991, 12.62598
1314.057, 45.79028
1315.122, 19.82153
1316.187, 32.93994
1317.252, 50.88989
1318.317, 2.050049
1319.381, 32.91357
1320.446, 62.97803
1321.510, 0.9650880
1322.574, 33.15820
1323.638, 67.28418
1324.702, 20.26904
1325.766, 43.43433
1326.829, 45.59692
1327.892, 21.75635
1328.956, 24.79297
1330.019, 55.90259
1331.081, 22.17993
1332.144, 100.1887
1333.206, 7.328369
1334.269, 10.46484
1335.331, 54.54761
1336.393, 10.34277
1337.455, 55.58081
1338.516, 36.51147
1339.578, 44.67456
1340.639, 14.40552
1341.701, 24.82202
1342.762, 10.07153
1343.822, 93.16943
1344.883, 47.23657
1345.944, 42.33032
1347.004, 73.40845
1348.064, 57.51929
1349.124, 64.61426
1350.184, 44.71948
1351.244, 87.79736
1352.304, 54.87256
1353.363, 113.9868
1354.422, 83.13696
1355.481, 4.1016001E-02
1356.540, 30.07471
1357.599, 29.14917
1358.657, 63.16870
1359.716, 71.03198
1360.774, 55.00732
1361.832, 37.02930
1362.890, 82.90454
1363.948, 8.4472999E-02
1365.006, 1.081299
1366.063, 39.75781
1367.120, 61.66577
1368.178, 40.64331
1369.234, 65.39062
1370.291, 45.60547
1371.348, 46.40991
1372.404, 59.50488
1373.461, 1.537354
1374.517, 21.42749
1375.573, 75.27344
1376.629, 17.21680
1377.684, 70.98315
1378.740, 36.92188
1379.795, 61.81030
1380.850, 12.70898
1381.905, 67.60278
1382.960, 85.39648
1384.015, 14.28052
1385.070, 35.31201
1386.124, 43.18579
1387.178, 16.05469
1388.232, 56.86182
1389.286, 53.75513
1390.340, 60.60962
1391.393, 39.31201
1392.447, 26.94019
1393.500, 13.93433
1394.553, 76.91284
1395.606, 88.22559
1396.659, 52.04736
1397.711, 56.74463
1398.764, 39.55444
1399.816, 22.35913
1400.868, 58.15820
1401.920, 20.91821
1402.972, 27.68408
1404.023, 37.57666
1405.075, 102.1865
1406.126, 12.90527
1407.177, 64.60620
1408.228, 1.750000
1409.279, 38.16357
1410.330, 135.1350
1411.380, 4.361816
1412.431, 46.43921
1413.481, 2.930908
1414.531, 19.81494
1415.580, 66.43896
1416.630, 23.12769
1417.680, 18.04541
1418.729, 9.721924
1419.778, 47.17236
1420.827, 26.26636
1421.876, 38.94238
1422.925, 19.59937
1423.973, 100.2664
1425.022, 14.92334
1426.070, 48.45703
1427.118, 15.90747
1428.166, 53.71387
1429.214, 51.53149
1430.261, 21.12549
1431.309, 46.71704
1432.356, 67.29712
1433.403, 8.735107
1434.450, 17.32324
1435.497, 78.94531
1436.543, 84.11548
1437.590, 87.60815
1438.636, 4.376465
1439.682, 9.361572
1440.728, 10.76880
1441.774, 31.13989
1442.819, 27.15479
1443.865, 111.5498
1444.910, 34.43115
1445.955, 173.2451
1447.000, 111.0520
1448.045, 137.8943
1449.090, 20.70459
1450.134, 53.28369
1451.178, 45.43335
1452.223, 111.2849
1453.267, 13.11621
1454.310, 70.11963
1455.354, 118.9851
1456.398, 56.83740
1457.441, 88.69238
1458.484, 89.54199
1459.527, 95.38550
1460.570, 96.19507
1461.613, 42.64966
1462.655, 79.47510
1463.698, 47.25830
1464.740, 32.78906
1465.782, 66.23022
1466.824, 15.01343
1467.866, 47.81177
1468.907, 92.60669
1469.948, 45.86206
1470.990, 43.48950
1472.031, 17.22192
1473.072, 13.64624
1474.112, 38.57764
1475.153, 27.10815
1476.194, 78.68604
1477.234, 109.4360
1478.274, 34.15088
1479.314, 24.61108
1480.354, 99.35156
1481.393, 92.09351
1482.433, 40.65918
1483.472, 45.24146
1484.511, 69.84937
1485.550, 100.3149
1486.589, 41.40112
1487.628, 69.02173
1488.666, 55.88989
1489.704, 114.6877
1490.743, 94.18286
1491.781, 57.38477
1492.819, 55.89282
1493.856, 53.31592
1494.894, 48.73071
1495.931, 77.12988
1496.968, 7.727295
1498.005, 78.15796
1499.042, 36.48462
1500.079, 38.87207
1501.115, 109.4709
1502.152, 70.45654
1503.188, 35.09009
1504.224, 90.59180
1505.260, 46.97559
1506.296, 61.42236
1507.331, 53.64502
1508.367, 51.07422
1509.402, 1.231689
1510.437, 40.65796
1511.472, 75.06543
1512.507, 114.4565
1513.541, 16.83032
1514.576, 54.08130
1515.610, 44.12720
1516.644, 77.44971
1517.678, 76.76294
1518.712, 16.59106
1519.746, 40.41064
1520.779, 52.64697
1521.813, 119.4922
1522.846, 68.67188
1523.879, 63.77441
1524.912, 81.01196
1525.944, 123.2446
1526.977, 38.48804
1528.009, 71.72949
1529.041, 85.95898
1530.073, 54.20630
1531.105, 45.96289
1532.137, 67.13184
1533.168, 0.3515630
1534.200, 31.63599
1535.231, 16.81665
1536.262, 17.45605
1537.293, 13.15479
1538.324, 29.54102
1539.354, 28.53979
1540.385, 48.92456
1541.415, 3.045898
1542.445, 81.08350
1543.475, 46.21899
1544.505, 91.34717
1545.534, 62.45752
1546.564, 17.54541
1547.593, 57.62183
1548.622, 108.3274
1549.651, 54.47974
1550.680, 160.7036
1551.708, 189.7417
1552.737, 331.7559
1553.765, 365.3933
1554.793, 287.8928
1555.821, 129.2834
1556.849, 80.47241
1557.877, 27.80591
1558.904, 1.614990
1559.932, 45.64062
1560.959, 97.16748
1561.986, 0.2395020
1563.013, 0.0000000E+00
##END=



