##NAMES=Cuprite
##RRUFFID=R050374
##IDEAL CHEMISTRY=Cu^1+^_2_O
##LOCALITY=unknown
##OWNER=RRUFF
##SOURCE=Eugene Schlepp
##DESCRIPTION=Aggregate of deep red cubes
##STATUS=The identification of this mineral has been confirmed by X-ray diffraction and chemical analysis
##URL=rruff.info/R050374
##MEASURED CHEMISTRY=Cu_2.00_O
##PIN_ID=M00318
##ORIENTATION=Laser parallel to -a* (-1 0 0). Fiducial mark perpendicular to laser is parallel to b [0 1 0]
87.30800, 0.0000000E+00
88.54200, 252.0117
89.77700, 535.8672
91.01200, 1501.699
92.24600, 2425.492
93.48000, 2678.121
94.71400, 2362.273
95.94800, 2728.980
97.18200, 2844.285
98.41600, 2992.297
99.64900, 3262.426
100.8830, 3208.688
102.1160, 3276.797
103.3490, 3134.527
104.5820, 3137.379
105.8150, 3087.035
107.0470, 2985.359
108.2800, 2646.641
109.5120, 2633.508
110.7440, 2500.957
111.9760, 2370.914
113.2080, 2424.934
114.4400, 2158.586
115.6710, 2220.980
116.9030, 2158.578
118.1340, 2159.148
119.3650, 2035.125
120.5960, 1953.668
121.8270, 2002.945
123.0580, 1983.602
124.2880, 2026.355
125.5190, 1729.047
126.7490, 1729.129
127.9790, 2172.531
129.2090, 2755.711
130.4390, 3334.945
131.6680, 3511.715
132.8980, 3967.594
134.1270, 3611.230
135.3560, 4222.812
136.5850, 4868.055
137.8140, 5516.984
139.0430, 6188.031
140.2710, 6507.750
141.5000, 6727.688
142.7280, 6485.793
143.9560, 6558.320
145.1840, 6192.090
146.4120, 6120.539
147.6390, 5865.484
148.8670, 5330.438
150.0940, 5025.711
151.3210, 4792.703
152.5490, 4717.348
153.7750, 4429.586
155.0020, 4273.125
156.2290, 4186.840
157.4550, 3777.723
158.6810, 3449.801
159.9080, 3345.102
161.1340, 3007.523
162.3590, 2869.930
163.5850, 2707.629
164.8110, 2808.793
166.0360, 2662.555
167.2610, 2749.141
168.4860, 2857.680
169.7110, 2984.887
170.9360, 3393.160
172.1610, 3660.398
173.3850, 4283.426
174.6100, 4416.344
175.8340, 4859.074
177.0580, 5153.996
178.2820, 5750.484
179.5050, 6340.984
180.7290, 6922.391
181.9520, 7603.723
183.1760, 8475.488
184.3990, 9088.684
185.6220, 9589.203
186.8450, 10015.01
188.0670, 10213.67
189.2900, 9735.359
190.5120, 9651.613
191.7340, 9782.250
192.9560, 10384.29
194.1780, 10732.87
195.4000, 11709.96
196.6220, 12534.82
197.8430, 12645.68
199.0640, 12590.16
200.2860, 12948.57
201.5070, 13093.32
202.7270, 13448.79
203.9480, 14139.42
205.1690, 15119.30
206.3890, 16050.71
207.6090, 17755.00
208.8290, 19533.11
210.0490, 21759.71
211.2690, 23527.23
212.4890, 25432.98
213.7080, 27034.34
214.9280, 27591.00
216.1470, 27686.04
217.3660, 26246.20
218.5850, 23990.72
219.8030, 20574.94
221.0220, 16545.91
222.2400, 13573.41
223.4590, 11366.09
224.6770, 9866.340
225.8950, 8671.449
227.1120, 7457.414
228.3300, 6692.234
229.5480, 5890.910
230.7650, 5371.445
231.9820, 4576.836
233.1990, 4005.082
234.4160, 3369.988
235.6330, 3011.109
236.8490, 2886.004
238.0660, 2468.824
239.2820, 1895.852
240.4980, 1598.648
241.7140, 1032.898
242.9300, 867.3555
244.1460, 700.8438
245.3610, 530.1992
246.5770, 420.3008
247.7920, 44.04297
249.0070, 107.6602
250.2220, 21.08984
251.4370, 304.7461
252.6510, 392.2930
253.8660, 390.6055
255.0800, 290.7422
256.2940, 254.7109
257.5080, 121.4570
258.7220, 96.30469
259.9360, 370.1758
261.1490, 372.3359
262.3630, 323.8750
263.5760, 414.4492
264.7890, 626.0977
266.0020, 476.9062
267.2150, 734.8477
268.4270, 809.9961
269.6400, 477.3984
270.8520, 832.9688
272.0640, 720.8203
273.2760, 475.9219
274.4880, 461.2227
275.7000, 339.7383
276.9120, 326.4570
278.1230, 349.3789
279.3340, 318.5469
280.5450, 91.98047
281.7560, 100.6562
282.9670, 46.33203
284.1780, 21.72656
285.3880, 51.11328
286.5980, 184.7461
287.8090, 255.6484
289.0190, 45.15625
290.2290, 183.7461
291.4380, 146.8516
292.6480, 218.2812
293.8570, 212.2305
295.0670, 42.01172
296.2760, 134.5039
297.4850, 212.8203
298.6930, 74.94141
299.9020, 347.8438
301.1110, 293.5586
302.3190, 297.0898
303.5270, 599.4375
304.7350, 200.6094
305.9430, 220.5977
307.1510, 195.4023
308.3580, 206.0273
309.5660, 172.4727
310.7730, 262.3438
311.9800, 251.2188
313.1870, 492.7773
314.3940, 256.5234
315.6010, 428.0078
316.8070, 357.0703
318.0130, 7.789063
319.2200, 281.2695
320.4260, 450.4570
321.6310, 198.2070
322.8370, 507.3477
324.0430, 267.7109
325.2480, 398.3984
326.4540, 48.44922
327.6590, 27.97266
328.8640, 437.0195
330.0680, 652.7422
331.2730, 105.7734
332.4780, 169.6797
333.6820, 3.187500
334.8860, 83.76953
336.0900, 34.09766
337.2940, 63.06641
338.4980, 139.1133
339.7010, 192.8555
340.9050, 145.4688
342.1080, 236.9297
343.3110, 119.2422
344.5140, 149.3711
345.7170, 268.3398
346.9200, 0.8242190
348.1220, 78.83984
349.3240, 188.2617
350.5270, 317.5273
351.7290, 373.0469
352.9310, 426.9727
354.1320, 478.4180
355.3340, 469.9961
356.5350, 459.3633
357.7370, 468.5039
358.9380, 561.3555
360.1390, 532.2227
361.3400, 775.8398
362.5400, 829.3125
363.7410, 908.5625
364.9410, 870.6875
366.1410, 947.6758
367.3410, 995.6680
368.5410, 1016.543
369.7410, 1116.348
370.9400, 1165.492
372.1400, 1274.742
373.3390, 1305.340
374.5380, 1347.871
375.7370, 1402.336
376.9360, 1545.727
378.1350, 1407.062
379.3330, 1643.395
380.5310, 1845.703
381.7300, 1893.160
382.9280, 2200.172
384.1260, 2058.305
385.3230, 2525.363
386.5210, 2407.336
387.7180, 2477.223
388.9160, 2635.008
390.1130, 2935.703
391.3100, 2641.289
392.5060, 3144.777
393.7030, 3140.309
394.9000, 3214.574
396.0960, 3396.031
397.2920, 3445.336
398.4880, 3686.266
399.6840, 3721.062
400.8800, 3852.215
402.0750, 4082.809
403.2710, 4084.664
404.4660, 4158.684
405.6610, 4217.461
406.8560, 4090.199
408.0510, 4228.016
409.2450, 4115.809
410.4400, 4333.773
411.6340, 4177.375
412.8280, 3928.594
414.0220, 3623.793
415.2160, 3963.273
416.4100, 3535.152
417.6030, 3596.785
418.7970, 3478.723
419.9900, 3312.277
421.1830, 3299.930
422.3760, 3121.051
423.5690, 3098.324
424.7610, 2777.379
425.9540, 2584.441
427.1460, 2563.223
428.3380, 2394.977
429.5300, 2412.559
430.7220, 2299.875
431.9140, 1859.598
433.1050, 2100.379
434.2970, 1629.379
435.4880, 1685.219
436.6790, 1669.105
437.8700, 1752.887
439.0610, 1461.688
440.2510, 1396.023
441.4420, 1410.188
442.6320, 1485.316
443.8220, 1293.824
445.0120, 1645.277
446.2020, 1429.668
447.3910, 1540.008
448.5810, 1363.258
449.7700, 1288.793
450.9600, 1387.324
452.1490, 1499.898
453.3370, 1340.109
454.5260, 1301.680
455.7150, 1177.734
456.9030, 1182.715
458.0910, 1395.438
459.2800, 1629.359
460.4670, 1492.773
461.6550, 1547.094
462.8430, 1397.633
464.0300, 1585.422
465.2180, 1668.102
466.4050, 1505.836
467.5920, 1575.336
468.7790, 1629.434
469.9650, 1649.543
471.1520, 1542.312
472.3380, 1685.676
473.5250, 1529.324
474.7110, 1806.402
475.8970, 1793.902
477.0820, 1993.645
478.2680, 1859.938
479.4540, 1754.402
480.6390, 1671.438
481.8240, 1557.258
483.0090, 1585.352
484.1940, 1639.367
485.3780, 1562.039
486.5630, 1441.664
487.7470, 1498.746
488.9320, 1383.172
490.1160, 1364.184
491.3000, 1252.785
492.4830, 1451.453
493.6670, 1310.137
494.8500, 1366.027
496.0340, 1437.844
497.2170, 1724.332
498.4000, 1188.730
499.5820, 1468.016
500.7650, 1311.434
501.9480, 1166.426
503.1300, 1167.453
504.3120, 1082.504
505.4940, 1048.059
506.6760, 1142.711
507.8580, 1054.867
509.0390, 1173.059
510.2210, 1297.289
511.4020, 1206.559
512.5830, 1280.688
513.7640, 1228.453
514.9450, 1210.594
516.1250, 1130.020
517.3060, 980.4883
518.4860, 961.0000
519.6660, 1263.551
520.8460, 1150.148
522.0260, 1222.789
523.2060, 1181.477
524.3850, 1166.277
525.5650, 1297.984
526.7440, 1113.805
527.9230, 1176.676
529.1020, 1071.594
530.2810, 967.5664
531.4590, 769.5820
532.6380, 885.6523
533.8160, 798.7695
534.9940, 1008.938
536.1720, 736.1758
537.3500, 945.4688
538.5270, 811.8711
539.7050, 941.4102
540.8820, 981.0820
542.0590, 1093.867
543.2360, 1150.758
544.4130, 1034.707
545.5900, 977.7383
546.7660, 1058.836
547.9430, 924.0703
549.1190, 1088.449
550.2950, 1265.992
551.4710, 1148.750
552.6470, 910.6992
553.8220, 1057.898
554.9980, 981.3711
556.1730, 1247.039
557.3480, 977.9922
558.5230, 1091.211
559.6980, 986.6328
560.8730, 1364.254
562.0470, 1253.051
563.2220, 1230.012
564.3960, 1362.152
565.5700, 1062.473
566.7440, 1176.918
567.9170, 1270.508
569.0910, 1301.238
570.2640, 1402.078
571.4380, 1738.320
572.6110, 1546.457
573.7840, 1307.766
574.9570, 1208.203
576.1290, 1524.285
577.3020, 1309.996
578.4740, 1531.789
579.6460, 1398.707
580.8180, 1377.496
581.9900, 1373.742
583.1620, 1252.145
584.3330, 1098.719
585.5040, 1400.430
586.6760, 1522.238
587.8470, 1452.309
589.0180, 1251.391
590.1880, 1686.605
591.3590, 1436.973
592.5290, 1858.258
593.7000, 1494.871
594.8700, 1568.887
596.0400, 1712.285
597.2090, 1703.625
598.3790, 1804.191
599.5490, 1826.672
600.7180, 2041.926
601.8870, 2148.812
603.0560, 2495.910
604.2250, 2578.184
605.3940, 2556.188
606.5620, 2880.984
607.7300, 3095.871
608.8990, 3339.895
610.0670, 3632.410
611.2350, 3457.457
612.4020, 4060.051
613.5700, 4278.340
614.7370, 4218.188
615.9050, 4595.238
617.0720, 4931.406
618.2390, 4967.770
619.4060, 5094.293
620.5720, 5577.969
621.7390, 5556.094
622.9050, 5627.078
624.0710, 5816.289
625.2370, 5404.562
626.4030, 5766.953
627.5690, 5616.516
628.7340, 5235.223
629.9000, 5343.043
631.0650, 5207.047
632.2300, 5161.199
633.3950, 4991.496
634.5600, 5021.898
635.7240, 4813.406
636.8890, 4914.000
638.0530, 4628.695
639.2170, 4697.488
640.3810, 4726.387
641.5450, 4414.375
642.7080, 4298.453
643.8720, 4258.637
645.0350, 4141.910
646.1980, 3677.277
647.3610, 3460.734
648.5240, 3258.285
649.6870, 3284.918
650.8490, 2988.645
652.0120, 2487.461
653.1740, 2542.367
654.3360, 2266.539
655.4980, 2183.613
656.6600, 2058.469
657.8210, 1999.066
658.9830, 1781.434
660.1440, 1717.891
661.3050, 1613.434
662.4660, 1538.066
663.6270, 1450.785
664.7870, 1488.590
665.9480, 1129.480
667.1080, 1340.461
668.2680, 774.5234
669.4280, 1292.680
670.5880, 1166.922
671.7480, 984.2461
672.9070, 820.6523
674.0670, 986.1445
675.2260, 1138.723
676.3850, 927.3750
677.5440, 1098.117
678.7030, 890.9414
679.8610, 1036.844
681.0200, 761.8242
682.1780, 631.8867
683.3360, 922.0312
684.4940, 568.2500
685.6520, 340.5508
686.8090, 642.9258
687.9670, 705.3828
689.1240, 614.9141
690.2810, 508.5195
691.4380, 96.20312
692.5950, 264.9609
693.7520, 204.7852
694.9080, 261.6875
696.0650, 359.6562
697.2210, 273.6953
698.3770, 83.80078
699.5330, 50.97266
700.6880, 149.2109
701.8440, 203.5156
702.9990, 30.87891
704.1550, 463.3828
705.3100, 200.3750
706.4650, 65.91406
707.6190, 307.8945
708.7740, 260.5625
709.9290, 113.9688
711.0830, 374.2148
712.2370, 86.03906
713.3910, 135.4141
714.5450, 60.04688
715.6980, 9.937500
716.8520, 368.9727
718.0050, 285.6797
719.1580, 72.01562
720.3110, 362.8555
721.4640, 322.7695
722.6170, 34.80078
723.7700, 27.87109
724.9220, 129.4648
726.0740, 16.98438
727.2260, 292.4648
728.3780, 24.51562
729.5300, 114.9766
730.6810, 116.8281
731.8330, 149.3125
732.9840, 92.24219
734.1350, 51.07031
735.2860, 94.24609
736.4370, 123.3672
737.5880, 300.9141
738.7380, 48.76953
739.8880, 47.52344
741.0390, 101.7812
742.1890, 22.96875
743.3380, 113.7539
744.4880, 205.5586
745.6380, 241.1133
746.7870, 254.2734
747.9360, 290.7852
749.0850, 159.9961
750.2340, 162.3594
751.3830, 39.75000
752.5310, 34.49219
753.6800, 74.99609
754.8280, 99.62891
755.9760, 132.4883
757.1240, 84.60547
758.2720, 397.6406
759.4190, 137.6523
760.5670, 105.1641
761.7140, 60.78516
762.8610, 133.9922
764.0080, 11.04688
765.1550, 82.02344
766.3020, 67.37891
767.4480, 5.847656
768.5950, 47.16406
769.7410, 103.9688
770.8870, 203.6367
772.0330, 238.9961
773.1780, 189.8281
774.3240, 424.9297
775.4690, 197.2227
776.6140, 435.1914
777.7590, 306.2852
778.9040, 322.3828
780.0490, 426.4766
781.1940, 458.6602
782.3380, 363.7461
783.4820, 104.8320
784.6260, 225.6953
785.7700, 253.7695
786.9140, 218.4883
788.0580, 295.4023
789.2010, 106.0742
790.3450, 431.1211
791.4880, 1.835938
792.6310, 193.1875
793.7730, 68.30469
794.9160, 469.4883
796.0590, 321.4805
797.2010, 493.1211
798.3430, 372.0938
799.4850, 340.0547
800.6270, 412.9961
801.7690, 77.81641
802.9100, 441.7305
804.0520, 126.6289
805.1930, 327.7344
806.3340, 85.60156
807.4750, 203.7031
808.6160, 120.5312
809.7560, 85.34375
810.8970, 115.1328
812.0370, 234.9102
813.1770, 311.6641
814.3170, 110.3945
815.4570, 255.1094
816.5960, 76.80078
817.7360, 170.4648
818.8750, 200.1094
820.0140, 231.7305
821.1530, 450.3281
822.2920, 54.90234
823.4310, 551.4492
824.5690, 242.9688
825.7070, 307.4648
826.8460, 296.9297
827.9840, 246.3672
829.1220, 412.7852
830.2590, 78.16406
831.3970, 556.5195
832.5340, 467.8477
833.6710, 220.1406
834.8080, 183.4062
835.9450, 167.6406
837.0820, 264.8438
838.2190, 169.2031
839.3550, 242.1484
840.4910, 51.25391
841.6270, 38.32422
842.7630, 25.64844
843.8990, 64.35156
845.0350, 424.1680
846.1700, 20.00000
847.3060, 8.500000
848.4410, 237.2109
849.5760, 40.11328
850.7100, 87.51953
851.8450, 201.4336
852.9800, 202.8711
854.1140, 97.73438
855.2480, 72.45703
856.3820, 174.9922
857.5160, 172.9961
858.6500, 188.1680
859.7830, 106.5117
860.9170, 0.9921880
862.0500, 61.55859
863.1830, 153.3711
864.3160, 65.20703
865.4480, 133.1641
866.5810, 63.27344
867.7130, 89.71484
868.8460, 82.43359
869.9780, 3.812500
871.1100, 21.16797
872.2410, 54.94141
873.3730, 298.3633
874.5050, 288.4688
875.6360, 568.7539
876.7670, 494.0117
877.8980, 900.6562
879.0290, 1115.859
880.1590, 927.0234
881.2900, 166.1445
882.4200, 32.78125
883.5500, 117.8164
884.6800, 161.0000
885.8100, 114.3633
886.9400, 89.55469
888.0690, 17.92188
889.1990, 55.17969
890.3280, 37.36719
891.4570, 65.50391
892.5860, 43.40625
893.7140, 312.5195
894.8430, 33.44531
895.9710, 109.0078
897.1000, 190.8008
898.2280, 68.56250
899.3560, 330.0508
900.4830, 38.38281
901.6110, 89.07031
902.7380, 147.4648
903.8660, 5.796875
904.9930, 121.0508
906.1200, 38.24609
907.2460, 255.3594
908.3730, 194.4336
909.5000, 368.4570
910.6260, 157.4375
911.7520, 57.36719
912.8780, 266.2227
914.0040, 233.0391
915.1290, 495.8008
916.2550, 31.52344
917.3800, 224.1602
918.5050, 338.7539
919.6300, 130.2969
920.7550, 247.7891
921.8800, 332.2344
923.0040, 264.0039
924.1290, 178.9883
925.2530, 268.2969
926.3770, 320.5586
927.5010, 315.5898
928.6250, 119.7539
929.7480, 31.86719
930.8720, 210.8984
931.9950, 142.8828
933.1180, 382.8125
934.2410, 579.6992
935.3640, 331.5391
936.4860, 131.3398
937.6090, 481.0820
938.7310, 294.7812
939.8530, 116.4336
940.9750, 237.0508
942.0970, 174.6211
943.2180, 299.1484
944.3400, 289.6250
945.4610, 276.0586
946.5820, 537.4492
947.7030, 533.7969
948.8240, 758.0977
949.9450, 1030.355
951.0650, 555.5664
952.1860, 457.7383
953.3060, 635.8711
954.4260, 402.9531
955.5460, 437.9961
956.6650, 272.9961
957.7850, 428.9531
958.9040, 301.8633
960.0230, 547.7344
961.1420, 458.5625
962.2610, 357.3594
963.3800, 325.1094
964.4990, 354.8242
965.6170, 615.4883
966.7350, 610.1211
967.8530, 255.7031
968.9710, 584.2539
970.0890, 431.7578
971.2070, 380.2266
972.3240, 572.6523
973.4410, 446.0391
974.5580, 661.3867
975.6750, 400.6172
976.7920, 514.3828
977.9090, 432.6250
979.0250, 505.4375
980.1410, 519.5938
981.2580, 523.1445
982.3740, 605.6328
983.4890, 553.6836
984.6050, 711.2031
985.7200, 697.5742
986.8360, 464.5117
987.9510, 755.4219
989.0660, 541.6719
990.1810, 583.3438
991.2950, 514.4609
992.4100, 746.5469
993.5240, 517.5273
994.6390, 622.4922
995.7530, 693.9414
996.8660, 611.4531
997.9800, 635.0781
999.0940, 445.1094
1000.207, 465.7539
1001.320, 439.6602
1002.433, 690.6406
1003.546, 621.3203
1004.659, 725.2852
1005.772, 1027.602
1006.884, 735.1328
1007.996, 573.5664
1009.108, 773.0156
1010.220, 785.4375
1011.332, 540.8477
1012.444, 703.2422
1013.555, 862.6172
1014.666, 780.9766
1015.777, 850.3125
1016.888, 920.5156
1017.999, 896.6328
1019.110, 862.2773
1020.220, 906.1133
1021.331, 948.4453
1022.441, 908.4141
1023.551, 1039.129
1024.661, 1070.980
1025.770, 1212.082
1026.880, 961.1875
1027.989, 1392.375
1029.098, 545.8984
1030.207, 1244.289
1031.316, 1141.461
1032.425, 1017.691
1033.533, 812.8828
1034.642, 1237.168
1035.750, 1472.777
1036.858, 1525.062
1037.966, 834.7305
1039.073, 1101.320
1040.181, 983.3672
1041.288, 853.3320
1042.396, 1255.074
1043.503, 677.2617
1044.610, 1070.016
1045.716, 1072.594
1046.823, 1255.383
1047.929, 1054.117
1049.036, 971.4727
1050.142, 1268.926
1051.248, 1339.375
1052.353, 1049.617
1053.459, 1226.988
1054.564, 1202.137
1055.670, 1684.281
1056.775, 1267.426
1057.880, 1289.457
1058.985, 1344.598
1060.089, 1209.742
1061.194, 1155.883
1062.298, 1398.926
1063.402, 1280.984
1064.506, 1291.160
1065.610, 1364.688
1066.713, 1131.871
1067.817, 1293.059
1068.920, 1254.242
1070.023, 1114.539
1071.126, 1073.797
1072.229, 1003.199
1073.332, 960.1719
1074.435, 1014.379
1075.537, 1262.344
1076.639, 1070.566
1077.741, 717.7930
1078.843, 1557.031
1079.945, 930.2656
1081.046, 1017.504
1082.148, 1070.758
1083.249, 895.0117
1084.350, 920.2734
1085.451, 1002.543
1086.551, 1039.820
1087.652, 947.0977
1088.752, 1019.223
1089.853, 987.5625
1090.953, 1032.969
1092.053, 947.2656
1093.152, 917.5781
1094.252, 837.9219
1095.351, 882.2734
1096.451, 574.6367
1097.550, 911.0156
1098.649, 665.4023
1099.748, 878.8008
1100.846, 1013.203
1101.945, 1093.617
1103.043, 900.7812
1104.141, 1130.219
1105.239, 845.6641
1106.337, 1124.125
1107.434, 1156.594
1108.532, 641.2188
1109.629, 1003.715
1110.726, 879.4766
1111.823, 628.0859
1112.920, 934.7031
1114.017, 827.3398
1115.113, 723.0391
1116.210, 780.7422
1117.306, 897.4922
1118.402, 878.2969
1119.498, 779.1094
1120.593, 1031.938
1121.689, 1070.816
1122.784, 967.7422
1123.879, 684.7422
1124.974, 971.8281
1126.069, 701.9883
1127.164, 823.2109
1128.259, 688.4688
1129.353, 369.7734
1130.447, 460.1484
1131.541, 750.5781
1132.635, 317.2383
1133.729, 681.8945
1134.822, 562.4648
1135.916, 521.0547
1137.009, 669.6836
1138.102, 608.3516
1139.195, 707.0508
1140.288, 545.8633
1141.380, 396.6016
1142.473, 204.3594
1143.565, 566.1289
1144.657, 442.9219
1145.749, 614.9844
1146.841, 468.8867
1147.932, 380.7969
1149.024, 377.7461
1150.115, 411.7617
1151.206, 532.8320
1152.297, 353.9922
1153.388, 340.2070
1154.479, 234.4570
1155.569, 545.7266
1156.659, 534.0312
1157.750, 528.3477
1158.839, 238.8242
1159.929, 124.5547
1161.019, 140.9453
1162.108, 259.3633
1163.198, 290.7852
1164.287, 493.2812
1165.376, 277.1133
1166.465, 327.8828
1167.553, 189.1953
1168.642, 225.9727
1169.730, 184.8477
1170.818, 307.2695
1171.906, 262.7656
1172.994, 35.95703
1174.082, 210.3125
1175.170, 162.7188
1176.257, 60.78516
1177.344, 177.5625
1178.431, 332.0703
1179.518, 159.9102
1180.605, 224.6211
1181.691, 377.0625
1182.778, 11.67969
1183.864, 38.03906
1184.950, 127.9492
1186.036, 411.8711
1187.122, 159.8281
1188.207, 77.26562
1189.292, 154.2109
1190.378, 283.1602
1191.463, 147.6211
1192.548, 152.8984
1193.632, 10.63672
1194.717, 67.98438
1195.801, 49.71484
1196.886, 199.1953
1197.970, 151.8398
1199.054, 121.9141
1200.137, 250.0000
1201.221, 7.730469
1202.305, 21.38281
1203.388, 143.3047
1204.471, 84.92969
1205.554, 348.9375
1206.637, 25.44922
1207.719, 440.0586
1208.802, 110.9688
1209.884, 195.1367
1210.966, 144.2109
1212.048, 71.88281
1213.130, 99.30078
1214.212, 79.60156
1215.293, 66.56250
1216.374, 143.7656
1217.456, 133.9766
1218.536, 226.5586
1219.617, 162.3984
1220.698, 269.6953
1221.778, 273.9414
1222.859, 184.5625
1223.939, 85.92188
1225.019, 87.16406
1226.099, 276.4648
1227.178, 61.49219
1228.258, 286.7188
1229.337, 168.1094
1230.417, 284.9844
1231.496, 102.9531
1232.574, 40.80859
1233.653, 109.8242
1234.732, 258.2383
1235.810, 182.9961
1236.888, 147.6992
1237.966, 11.85156
1239.044, 358.8633
1240.122, 15.92188
1241.199, 187.3281
1242.277, 29.53125
1243.354, 285.7266
1244.431, 303.4609
1245.508, 347.0352
1246.585, 248.8477
1247.661, 96.69922
1248.738, 383.8555
1249.814, 182.6992
1250.890, 329.8438
1251.966, 202.9805
1253.042, 348.0508
1254.117, 349.9531
1255.193, 226.0508
1256.268, 237.9922
1257.343, 358.6602
1258.418, 253.7227
1259.493, 389.3945
1260.567, 333.2461
1261.642, 27.65234
1262.716, 44.07422
1263.790, 243.2422
1264.864, 427.9688
1265.938, 293.1797
1267.011, 581.4883
1268.085, 129.2148
1269.158, 66.85547
1270.231, 498.1914
1271.304, 140.6562
1272.377, 276.6172
1273.450, 348.8359
1274.522, 40.90625
1275.594, 103.2148
1276.666, 432.3750
1277.738, 263.1016
1278.810, 406.8086
1279.882, 40.51562
1280.953, 137.1250
1282.025, 386.1289
1283.096, 213.7109
1284.167, 362.4141
1285.238, 319.9453
1286.308, 201.8203
1287.379, 121.8594
1288.449, 66.31250
1289.519, 325.3594
1290.589, 279.2734
1291.659, 165.6367
1292.729, 216.4414
1293.798, 100.9219
1294.868, 131.3828
1295.937, 58.92969
1297.006, 141.6602
1298.075, 128.7969
1299.143, 6.644531
1300.212, 25.80859
1301.280, 79.76953
1302.348, 64.12500
1303.416, 51.73047
1304.484, 124.2305
1305.552, 432.5508
1306.620, 42.47266
1307.687, 239.4727
1308.754, 92.67969
1309.821, 93.89062
1310.888, 143.4219
1311.955, 36.76172
1313.021, 255.8711
1314.088, 481.6055
1315.154, 233.3750
1316.220, 124.7422
1317.286, 581.1875
1318.352, 27.49609
1319.417, 335.2344
1320.483, 183.5898
1321.548, 320.6992
1322.613, 109.3125
1323.678, 91.97266
1324.743, 157.6758
1325.807, 139.6797
1326.872, 404.9414
1327.936, 452.7695
1329.000, 239.7539
1330.064, 227.6797
1331.128, 9.460938
1332.191, 271.2812
1333.255, 91.75000
1334.318, 31.75781
1335.381, 198.4609
1336.444, 128.3555
1337.507, 326.6914
1338.569, 96.61719
1339.632, 197.7422
1340.694, 90.60547
1341.756, 425.1992
1342.818, 78.95312
1343.880, 376.6172
1344.941, 385.8594
1346.003, 341.5273
1347.064, 556.9922
1348.125, 326.8008
1349.186, 488.2500
1350.247, 255.2109
1351.308, 282.4453
1352.368, 68.01172
1353.428, 333.8047
1354.489, 15.57422
1355.549, 461.2930
1356.608, 317.9727
1357.668, 204.3164
1358.727, 185.8477
1359.787, 505.5000
1360.846, 80.76562
1361.905, 320.2695
1362.964, 71.62891
1364.022, 254.8242
1365.081, 315.3047
1366.139, 255.3477
1367.197, 644.2227
1368.255, 108.7188
1369.313, 399.3672
1370.371, 450.2500
1371.428, 82.91406
1372.486, 291.9531
1373.543, 236.3203
1374.600, 78.01953
1375.657, 406.7578
1376.713, 227.7305
1377.770, 446.2422
1378.826, 435.6992
1379.882, 170.8828
1380.938, 212.0195
1381.994, 408.1797
1383.050, 199.2070
1384.106, 263.1680
1385.161, 440.0820
1386.216, 259.9453
1387.271, 213.7344
1388.326, 318.3828
1389.381, 312.4062
1390.435, 153.0156
1391.490, 235.3750
1392.544, 146.6445
1393.598, 133.8438
1394.652, 92.96875
1395.705, 51.04688
1396.759, 310.8438
1397.812, 56.71484
1398.866, 169.6289
1399.919, 328.2656
1400.972, 152.8398
1402.024, 67.92969
1403.077, 65.59375
1404.129, 562.6797
1405.181, 430.8594
1406.233, 456.9609
1407.285, 487.0195
1408.337, 334.9609
1409.389, 657.8164
1410.440, 396.7969
1411.491, 549.5039
1412.542, 344.6797
1413.593, 297.9258
1414.644, 552.2578
1415.695, 122.2734
1416.745, 133.9062
1417.795, 529.1289
1418.845, 40.27734
1419.895, 5.324219
1420.945, 389.9570
1421.995, 327.6328
1423.044, 332.7031
1424.093, 603.3594
1425.142, 114.7695
1426.191, 317.5664
1427.240, 161.0117
1428.289, 89.08203
1429.337, 367.8594
1430.385, 392.4375
1431.433, 20.71484
1432.481, 384.3438
1433.529, 80.39453
1434.577, 170.2266
1435.624, 498.1641
1436.672, 501.5781
1437.719, 201.5625
1438.766, 269.9180
1439.812, 349.4336
1440.859, 331.8867
1441.905, 187.9375
1442.952, 174.7031
1443.998, 411.6328
1445.044, 297.2617
1446.090, 378.6250
1447.135, 433.8945
1448.181, 421.5703
1449.226, 67.70312
1450.271, 229.5352
1451.316, 80.19922
1452.361, 326.3984
1453.405, 476.7891
1454.450, 377.3164
1455.494, 164.8672
1456.538, 345.4336
1457.582, 123.7812
1458.626, 236.3398
1459.670, 77.21484
1460.713, 187.2227
1461.757, 355.0664
1462.800, 244.4375
1463.843, 319.9688
1464.886, 120.2773
1465.928, 141.8945
1466.971, 171.3633
1468.013, 148.0078
1469.055, 340.1719
1470.097, 490.4336
1471.139, 325.8594
1472.181, 343.2852
1473.222, 44.79297
1474.263, 311.4766
1475.305, 562.8164
1476.346, 344.2969
1477.386, 114.3516
1478.427, 602.5312
1479.468, 501.7500
1480.508, 575.9609
1481.548, 528.2969
1482.588, 252.9844
1483.628, 98.99219
1484.668, 392.2344
1485.707, 294.2852
1486.747, 396.4062
1487.786, 563.3125
1488.825, 511.7852
1489.864, 321.6328
1490.902, 75.42188
1491.941, 206.5781
1492.979, 335.0430
1494.017, 364.2070
1495.055, 639.1641
1496.093, 414.1641
1497.131, 347.4570
1498.168, 217.5156
1499.206, 364.9219
1500.243, 339.1836
1501.280, 266.4297
1502.317, 363.7070
1503.354, 347.1953
1504.390, 463.8828
1505.426, 436.3867
1506.463, 345.8594
1507.499, 412.8555
1508.535, 682.9688
1509.570, 498.9922
1510.606, 534.7578
1511.641, 360.2539
1512.676, 710.0703
1513.711, 201.7969
1514.746, 297.1758
1515.781, 719.5273
1516.816, 547.9688
1517.850, 391.8359
1518.884, 387.8203
1519.918, 333.1719
1520.952, 386.0938
1521.986, 448.1016
1523.019, 270.9180
1524.053, 445.1133
1525.086, 392.5000
1526.119, 601.9414
1527.152, 353.4531
1528.185, 382.7422
1529.217, 689.8750
1530.250, 561.7422
1531.282, 349.4570
1532.314, 402.8945
1533.346, 361.6992
1534.377, 203.8164
1535.409, 433.9492
1536.440, 113.5234
1537.472, 82.05859
1538.503, 417.9688
1539.534, 478.0312
1540.564, 153.4297
1541.595, 252.7812
1542.625, 526.6914
1543.656, 588.4492
1544.686, 271.8984
1545.716, 251.5078
1546.745, 482.0039
1547.775, 181.5195
1548.804, 489.5781
1549.834, 454.4883
1550.863, 937.2852
1551.892, 1166.230
1552.920, 833.2031
1553.949, 1587.133
1554.977, 882.5898
1556.006, 765.6953
1557.034, 471.1172
1558.062, 209.9141
1559.089, 39.97656
1560.117, 4.222656
1561.144, 19.88672
1562.172, 59.20312
1563.199, 266.2422
1564.226, 271.5078
1565.252, 50.76562
1566.279, 325.6797
1567.305, 114.7383
1568.332, 446.5312
1569.358, 90.93359
1570.384, 9.3750000E-02
1571.409, 123.1641
1572.435, 0.0000000E+00
##END=



