##NAMES=Diopside
##RRUFFID=R050406
##IDEAL CHEMISTRY=CaMgSi_2_O_6_
##LOCALITY=unknown
##OWNER=RRUFF
##SOURCE=University of Arizona Mineral Museum
##DESCRIPTION=Brownish gray massive
##STATUS=The identification of this mineral has been confirmed by X-ray diffraction and chemical analysis
##URL=rruff.info/R050406
##MEASURED CHEMISTRY=(Ca_0.95_Na_0.05_)(Mg_0.75_Fe^2+^_0.18_Fe^3+^_0.05_Al_0.01_Ti_0.01_Mn^2+^_0.01_)(Si_0.98_Al_0.02_)_2_O_6_
##PIN_ID=M00191
##ORIENTATION=Laser parallel to -b* (0 -1 0). Fiducial mark perpendicular to laser is parallel to c [0 0 1]
116.9030, 0.0000000E+00
118.1340, 45.75244
119.3650, 1.907227
120.5960, 35.38379
121.8270, 24.14404
123.0580, 31.67871
124.2880, 189.7856
125.5190, 150.9043
126.7490, 339.7974
127.9790, 610.8418
129.2090, 723.2271
130.4390, 927.4805
131.6680, 917.2192
132.8980, 811.8105
134.1270, 833.5234
135.3560, 878.6675
136.5850, 814.0518
137.8140, 948.0508
139.0430, 976.7842
140.2710, 881.4482
141.5000, 592.4468
142.7280, 463.7563
143.9560, 405.3579
145.1840, 299.2310
146.4120, 235.3584
147.6390, 125.7231
148.8670, 16.31152
150.0940, 219.1079
151.3210, 287.1016
152.5490, 194.2793
153.7750, 55.62988
155.0020, 33.14258
156.2290, 18.80615
157.4550, 111.3735
158.6810, 7.391602
159.9080, 95.24512
161.1340, 132.0586
162.3590, 134.5088
163.5850, 378.0996
164.8110, 532.8184
166.0360, 565.6514
167.2610, 793.5918
168.4860, 945.6323
169.7110, 1206.768
170.9360, 1301.993
172.1610, 1293.307
173.3850, 1170.704
174.6100, 1210.181
175.8340, 1217.732
177.0580, 1139.355
178.2820, 1187.046
179.5050, 1208.801
180.7290, 1237.617
181.9520, 1277.490
183.1760, 1282.420
184.3990, 1248.403
185.6220, 1096.437
186.8450, 1029.519
188.0670, 939.6475
189.2900, 898.8198
190.5120, 913.0361
191.7340, 942.2739
192.9560, 955.5347
194.1780, 869.8252
195.4000, 891.2163
196.6220, 834.8105
197.8430, 620.5894
199.0640, 926.4771
200.2860, 852.5532
201.5070, 892.7139
202.7270, 698.9854
203.9480, 471.2568
205.1690, 265.5273
206.3890, 256.8013
207.6090, 57.11084
208.8290, 115.4834
210.0490, 189.8950
211.2690, 227.2183
212.4890, 404.4639
213.7080, 324.7124
214.9280, 268.9639
216.1470, 441.2192
217.3660, 522.4790
218.5850, 714.7437
219.8030, 872.0156
221.0220, 1328.297
222.2400, 1527.586
223.4590, 1595.890
224.6770, 1750.242
225.8950, 1763.647
227.1120, 1833.059
228.3300, 1800.475
229.5480, 1814.896
230.7650, 1681.323
231.9820, 1852.754
233.1990, 1740.272
234.4160, 1820.633
235.6330, 1663.080
236.8490, 1559.532
238.0660, 1548.988
239.2820, 1613.449
240.4980, 1552.915
241.7140, 1727.386
242.9300, 1790.861
244.1460, 1827.340
245.3610, 2023.825
246.5770, 1955.314
247.7920, 2058.808
249.0070, 1903.305
250.2220, 2019.806
251.4370, 2090.312
252.6510, 1872.821
253.8660, 1827.334
255.0800, 1794.852
256.2940, 1794.373
257.5080, 2248.898
258.7220, 1838.736
259.9360, 2056.958
261.1490, 1272.493
262.3630, 1088.030
263.5760, 812.8711
264.7890, 740.9463
266.0020, 766.6475
267.2150, 602.0605
268.4270, 521.3936
269.6400, 545.9360
270.8520, 507.3657
272.0640, 441.9033
273.2760, 346.5957
274.4880, 546.0483
275.7000, 430.4336
276.9120, 521.5112
278.1230, 647.4810
279.3340, 600.1807
280.5450, 564.1523
281.7560, 577.7998
282.9670, 684.3848
284.1780, 734.1758
285.3880, 784.6401
286.5980, 852.8345
287.8090, 907.7847
289.0190, 1006.970
290.2290, 1137.050
291.4380, 1245.507
292.6480, 1317.885
293.8570, 1492.296
295.0670, 1606.919
296.2760, 1890.415
297.4850, 2120.969
298.6930, 2410.764
299.9020, 2750.317
301.1110, 3129.497
302.3190, 3528.839
303.5270, 4035.420
304.7350, 4659.510
305.9430, 5329.487
307.1510, 6221.356
308.3580, 7025.111
309.5660, 8196.561
310.7730, 9387.018
311.9800, 10417.49
313.1870, 11821.98
314.3940, 12636.48
315.6010, 13591.98
316.8070, 14012.50
318.0130, 14070.03
319.2200, 14288.57
320.4260, 14026.11
321.6310, 13964.97
322.8370, 13458.57
324.0430, 12931.35
325.2480, 12151.94
326.4540, 11641.55
327.6590, 10807.25
328.8640, 9837.888
330.0680, 8763.820
331.2730, 8114.477
332.4780, 7212.561
333.6820, 6652.192
334.8860, 6013.831
336.0900, 5570.475
337.2940, 5279.124
338.4980, 4832.779
339.7010, 4540.546
340.9050, 4395.213
342.1080, 4372.883
343.3110, 4166.559
344.5140, 4170.235
345.7170, 4059.916
346.9200, 4068.598
348.1220, 4088.281
349.3240, 3837.966
350.5270, 3942.652
351.7290, 3827.340
352.9310, 3669.028
354.1320, 3548.719
355.3340, 3406.408
356.5350, 3286.056
357.7370, 3148.794
358.9380, 3055.488
360.1390, 2888.184
361.3400, 2770.881
362.5400, 2541.579
363.7410, 2432.278
364.9410, 2264.979
366.1410, 2152.680
367.3410, 2082.382
368.5410, 1937.085
369.7410, 1973.790
370.9400, 1915.493
372.1400, 1926.198
373.3390, 1869.902
374.5380, 2009.606
375.7370, 1897.312
376.9360, 2039.016
378.1350, 2262.720
379.3330, 2282.425
380.5310, 2487.130
381.7300, 2361.835
382.9280, 2508.540
384.1260, 2371.244
385.3230, 2439.949
386.5210, 2331.652
387.7180, 2146.356
388.9160, 2025.059
390.1130, 1895.762
391.3100, 1755.464
392.5060, 1633.165
393.7030, 1400.865
394.9000, 1193.564
396.0960, 1039.264
397.2920, 922.9609
398.4880, 780.6572
399.6840, 579.3525
400.8800, 378.0464
402.0750, 300.7388
403.2710, 263.4297
404.4660, 88.11914
405.6610, 181.8066
406.8560, 137.4922
408.0510, 76.17627
409.2450, 39.86133
410.4400, 18.54834
411.6340, 44.23291
412.8280, 12.91699
414.0220, 45.59863
415.2160, 60.72119
416.4100, 2.920898
417.6030, 154.4429
418.7970, 25.89453
419.9900, 132.3672
421.1830, 18.91650
422.3760, 14.48389
423.5690, 114.0659
424.7610, 76.71631
425.9540, 75.41504
427.1460, 18.16211
428.3380, 30.92578
429.5300, 89.71387
430.7220, 5.556152
431.9140, 68.59131
433.1050, 96.73730
434.2970, 9.881348
435.4880, 28.02148
436.6790, 26.15820
437.8700, 0.7089840
439.0610, 26.58447
440.2510, 13.51611
441.4420, 53.38770
442.6320, 3.330566
443.8220, 20.28369
445.0120, 7.285156
446.2020, 27.75488
447.3910, 45.80273
448.5810, 47.85205
449.7700, 89.92676
450.9600, 102.1064
452.1490, 136.1836
453.3370, 216.3110
454.5260, 220.4526
455.7150, 194.5298
456.9030, 232.6128
458.0910, 163.9995
459.2800, 171.0996
460.4670, 137.4463
461.6550, 122.5757
462.8430, 122.7085
464.0300, 14.86816
465.2180, 73.04590
466.4050, 29.25195
467.5920, 118.4727
468.7790, 75.07031
469.9650, 55.36768
471.1520, 3.762207
472.3380, 16.51318
473.5250, 67.19873
474.7110, 9.958496
475.8970, 84.27734
477.0820, 84.53809
478.2680, 118.8008
479.4540, 112.0752
480.6390, 112.3652
481.8240, 61.64893
483.0090, 252.9370
484.1940, 240.2168
485.3780, 336.5107
486.5630, 491.8306
487.7470, 507.1426
488.9320, 648.4468
490.1160, 931.7656
491.3000, 1193.099
492.4830, 1624.423
493.6670, 2039.750
494.8500, 2743.068
496.0340, 3464.400
497.2170, 4262.722
498.4000, 4641.035
499.5820, 4964.362
500.7650, 5009.682
501.9480, 5074.989
503.1300, 4942.301
504.3120, 4930.601
505.4940, 4798.900
506.6760, 4589.188
507.8580, 4379.475
509.0390, 3937.751
510.2210, 3516.019
511.4020, 2920.277
512.5830, 2614.542
513.7640, 2196.803
514.9450, 1961.052
516.1250, 1675.290
517.3060, 1524.538
518.4860, 1321.784
519.6660, 1392.037
520.8460, 1390.290
522.0260, 1282.540
523.2060, 1199.786
524.3850, 1276.031
525.5650, 1157.271
526.7440, 1256.507
527.9230, 1229.732
529.1020, 1028.947
530.2810, 1149.148
531.4590, 1045.339
532.6380, 1015.517
533.8160, 954.6807
534.9940, 995.8325
536.1720, 1039.970
537.3500, 868.0947
538.5270, 962.2051
539.7050, 915.3018
540.8820, 936.3838
542.0590, 980.4517
543.2360, 1117.506
544.4130, 1113.545
545.5900, 1068.569
546.7660, 1217.579
547.9430, 1208.574
549.1190, 1220.553
550.2950, 1321.518
551.4710, 1330.376
552.6470, 1313.126
553.8220, 1375.965
554.9980, 1302.655
556.1730, 1200.463
557.3480, 1232.161
558.5230, 1286.704
559.6980, 1053.453
560.8730, 1087.238
562.0470, 1054.310
563.2220, 961.4746
564.3960, 907.8936
565.5700, 790.0347
566.7440, 920.4941
567.9170, 819.0112
569.0910, 763.0986
570.2640, 789.3618
571.4380, 648.9141
572.6110, 745.7266
573.7840, 699.3804
574.9570, 538.0312
576.1290, 526.3779
577.3020, 482.8149
578.4740, 440.2285
579.6460, 402.4058
580.8180, 346.0649
581.9900, 300.8555
583.1620, 261.4751
584.3330, 236.5928
585.5040, 214.1587
586.6760, 220.6978
587.8470, 241.2852
589.0180, 274.3027
590.1880, 129.6973
591.3590, 57.57227
592.5290, 178.7061
593.7000, 72.78418
594.8700, 69.72852
596.0400, 88.46436
597.2090, 239.9565
598.3790, 30.10107
599.5490, 192.2915
600.7180, 40.90479
601.8870, 114.6885
603.0560, 137.6660
604.2250, 157.2773
605.3940, 211.3662
606.5620, 235.2837
607.7300, 390.1128
608.8990, 220.0815
610.0670, 444.2642
611.2350, 339.8369
612.4020, 447.1875
613.5700, 504.9204
614.7370, 537.4922
615.9050, 621.8247
617.0720, 689.0044
618.2390, 779.0762
619.4060, 869.2764
620.5720, 983.1367
621.7390, 1075.112
622.9050, 1181.751
624.0710, 1316.286
625.2370, 1315.225
626.4030, 1534.707
627.5690, 1656.620
628.7340, 1691.448
629.9000, 2020.276
631.0650, 2103.184
632.2300, 2225.904
633.3950, 2401.839
634.5600, 2575.508
635.7240, 2933.122
636.8890, 3366.740
638.0530, 3553.495
639.2170, 3786.271
640.3810, 4118.811
641.5450, 4649.323
642.7080, 5060.332
643.8720, 5814.794
645.0350, 6590.605
646.1980, 7441.013
647.3610, 8625.074
648.5240, 10017.43
649.6870, 11927.03
650.8490, 14011.47
652.0120, 16776.42
653.1740, 20427.89
654.3360, 24489.11
655.4980, 29255.30
656.6600, 34336.08
657.8210, 39502.99
658.9830, 43400.21
660.1440, 46087.62
661.3050, 47653.59
662.4660, 48018.95
663.6270, 47179.37
664.7870, 45359.85
665.9480, 43283.07
667.1080, 40442.60
668.2680, 36902.65
669.4280, 33244.50
670.5880, 28832.73
671.7480, 24865.53
672.9070, 20844.30
674.0670, 17241.19
675.2260, 14575.90
676.3850, 12138.58
677.5440, 10190.24
678.7030, 8609.871
679.8610, 7385.472
681.0200, 6292.044
682.1780, 5572.589
683.3360, 4834.108
684.4940, 4404.597
685.6520, 3835.057
686.8090, 3300.489
687.9670, 2944.895
689.1240, 2633.271
690.2810, 2521.622
691.4380, 2165.944
692.5950, 1898.241
693.7520, 1880.511
694.9080, 1611.753
696.0650, 1647.970
697.2210, 1501.177
698.3770, 1298.360
699.5330, 1158.560
700.6880, 1146.742
701.8440, 1053.935
702.9990, 829.8252
704.1550, 938.9907
705.3100, 931.1528
706.4650, 768.3115
707.6190, 829.4673
708.7740, 717.6050
709.9290, 645.7280
711.0830, 531.8516
712.2370, 530.9541
713.3910, 512.0312
714.5450, 501.0825
715.6980, 412.1099
716.8520, 334.1123
718.0050, 371.0903
719.1580, 305.0464
720.3110, 318.9883
721.4640, 233.9062
722.6170, 102.8169
723.7700, 108.7061
724.9220, 116.5781
726.0740, 18.43018
727.2260, 62.23730
728.3780, 47.01367
729.5300, 70.75684
730.6810, 27.36426
731.8330, 57.03857
732.9840, 60.63135
734.1350, 32.76025
735.2860, 14.75684
736.4370, 2.290527
737.5880, 0.4794920
738.7380, 8.913574
739.8880, 58.93750
741.0390, 18.37305
742.1890, 74.35693
743.3380, 56.17236
744.4880, 82.06348
745.6380, 37.04492
746.7870, 53.08936
747.9360, 58.20801
749.0850, 3.401367
750.2340, 63.63916
751.3830, 43.94873
752.5310, 33.67822
753.6800, 26.69873
754.8280, 82.12402
755.9760, 0.3681640
757.1240, 35.17871
758.2720, 54.78223
759.4190, 57.54736
760.5670, 19.14209
761.7140, 104.1221
762.8610, 51.63184
764.0080, 99.44678
765.1550, 28.65234
766.3020, 39.73242
767.4480, 62.20605
768.5950, 65.20703
769.7410, 42.72754
770.8870, 21.35400
772.0330, 55.52490
773.1780, 67.61133
774.3240, 87.19092
775.4690, 111.9775
776.6140, 78.25098
777.7590, 33.45703
778.9040, 32.15039
780.0490, 37.17041
781.1940, 127.4702
782.3380, 21.90234
783.4820, 10.69580
784.6260, 29.71826
785.7700, 33.83740
786.9140, 5.619141
788.0580, 2.091797
789.2010, 67.57812
790.3450, 29.11084
791.4880, 23.33301
792.6310, 40.76709
793.7730, 88.80859
794.9160, 44.43652
796.0590, 84.09229
797.2010, 56.79541
798.3430, 51.22070
799.4850, 40.29150
800.6270, 63.07520
801.7690, 46.41309
802.9100, 42.72705
804.0520, 25.58447
805.1930, 9.455078
806.3340, 17.66650
807.4750, 20.21777
808.6160, 37.88916
809.7560, 66.99023
810.8970, 8.912598
812.0370, 91.17969
813.1770, 139.2676
814.3170, 127.3530
815.4570, 206.4346
816.5960, 175.5151
817.7360, 258.5938
818.8750, 257.6704
820.0140, 295.7461
821.1530, 293.8208
822.2920, 291.8955
823.4310, 331.9702
824.5690, 324.7158
825.7070, 297.1206
826.8460, 302.1973
827.9840, 288.2754
829.1220, 194.3545
830.2590, 295.4365
831.3970, 236.5205
832.5340, 247.6069
833.6710, 121.6968
834.8080, 160.7900
835.9450, 140.8877
837.0820, 37.98926
838.2190, 164.0947
839.3550, 46.79541
840.4910, 4.311523
841.6270, 120.4233
842.7630, 236.5396
843.8990, 180.6621
845.0350, 183.7896
846.1700, 211.9238
847.3060, 282.0640
848.4410, 262.2104
849.5760, 298.3638
850.7100, 408.5254
851.8450, 366.6934
852.9800, 478.8691
854.1140, 408.0527
855.2480, 530.2451
856.3820, 488.4463
857.5160, 632.6562
858.6500, 663.8750
859.7830, 666.9453
860.9170, 771.0571
862.0500, 727.2192
863.1830, 760.1851
864.3160, 809.7910
865.4480, 870.0225
866.5810, 796.8848
867.7130, 916.4839
868.8460, 923.1357
869.9780, 848.9170
871.1100, 939.9033
872.2410, 997.1309
873.3730, 1020.704
874.5050, 1066.228
875.6360, 1103.325
876.7670, 1178.250
877.8980, 1099.979
879.0290, 1099.074
880.1590, 1246.382
881.2900, 1149.139
882.4200, 1147.800
883.5500, 1259.533
884.6800, 1281.027
885.8100, 1229.045
886.9400, 1340.369
888.0690, 1232.017
889.1990, 1218.111
890.3280, 1224.023
891.4570, 1221.549
892.5860, 1181.348
893.7140, 1254.012
894.8430, 1217.550
895.9710, 1133.294
897.1000, 1254.271
898.2280, 1030.127
899.3560, 1056.309
900.4830, 1038.598
901.6110, 901.4604
902.7380, 1058.418
903.8660, 1038.380
904.9930, 1008.271
906.1200, 1009.355
907.2460, 884.2285
908.3730, 870.3965
909.5000, 887.6235
910.6260, 759.8530
911.7520, 793.1309
912.8780, 797.0820
914.0040, 738.4395
915.1290, 771.8418
916.2550, 658.7876
917.3800, 725.2944
918.5050, 734.4717
919.6300, 678.0752
920.7550, 594.0791
921.8800, 687.8096
923.0040, 653.3237
924.1290, 815.0244
925.2530, 753.5449
926.3770, 793.9609
927.5010, 698.9492
928.6250, 700.9829
929.7480, 690.4443
930.8720, 699.7910
931.9950, 665.8325
933.1180, 700.7197
934.2410, 619.0630
935.3640, 670.0439
936.4860, 548.9980
937.6090, 497.9146
938.7310, 607.0894
939.8530, 524.0303
940.9750, 511.4497
942.0970, 528.1069
943.2180, 491.4292
944.3400, 436.1880
945.4610, 456.9863
946.5820, 698.7070
947.7030, 665.6226
948.8240, 729.5791
949.9450, 783.5952
951.0650, 785.6523
952.1860, 920.7515
953.3060, 900.9097
954.4260, 995.1152
955.5460, 929.3672
956.6650, 1152.674
957.7850, 1010.040
958.9040, 1231.448
960.0230, 1142.897
961.1420, 1198.389
962.2610, 1410.922
963.3800, 1375.496
964.4990, 1365.117
965.6170, 1395.780
966.7350, 1499.511
967.8530, 1484.289
968.9710, 1674.120
970.0890, 1679.001
971.2070, 1799.926
972.3240, 1883.893
973.4410, 2000.903
974.5580, 2004.241
975.6750, 2182.326
976.7920, 2150.466
977.9090, 2347.653
979.0250, 2522.886
980.1410, 2602.162
981.2580, 2804.480
982.3740, 2941.841
983.4890, 3200.245
984.6050, 3455.690
985.7200, 3718.180
986.8360, 4014.710
987.9510, 4410.287
989.0660, 4718.903
990.1810, 5412.563
991.2950, 6022.265
992.4100, 6704.018
993.5240, 7665.812
994.6390, 8750.654
995.7530, 9955.535
996.8660, 11623.46
997.9800, 13521.44
999.0940, 15802.47
1000.207, 18665.54
1001.320, 22303.65
1002.433, 26551.83
1003.546, 31702.04
1004.659, 37862.30
1005.772, 43872.61
1006.884, 49695.98
1007.996, 53711.38
1009.108, 55687.85
1010.220, 55814.38
1011.332, 54169.97
1012.444, 51514.62
1013.555, 47556.34
1014.666, 42416.12
1015.777, 37656.00
1016.888, 32170.92
1017.999, 26818.91
1019.110, 22190.98
1020.220, 18602.10
1021.331, 15418.28
1022.441, 13111.53
1023.551, 11458.82
1024.661, 9975.175
1025.770, 8808.600
1026.880, 7992.074
1027.989, 7254.697
1029.098, 6700.293
1030.207, 6224.932
1031.316, 6028.062
1032.425, 5577.274
1033.533, 5385.531
1034.642, 5255.399
1035.750, 5040.655
1036.858, 4974.604
1037.966, 4776.427
1039.073, 4732.493
1040.181, 4799.595
1041.288, 4654.972
1042.396, 4498.161
1043.503, 4268.411
1044.610, 4108.435
1045.716, 3873.597
1046.823, 3702.506
1047.929, 3554.181
1049.036, 3354.836
1050.142, 3201.699
1051.248, 3023.092
1052.353, 2758.210
1053.459, 2646.136
1054.564, 2365.886
1055.670, 2375.238
1056.775, 2317.812
1057.880, 2103.921
1058.985, 2140.966
1060.089, 1916.422
1061.194, 1896.290
1062.298, 1937.256
1063.402, 1827.970
1064.506, 1768.827
1065.610, 1715.878
1066.713, 1554.583
1067.817, 1496.082
1068.920, 1386.590
1070.023, 1374.769
1071.126, 1301.310
1072.229, 1413.252
1073.332, 1328.351
1074.435, 1280.948
1075.537, 1205.032
1076.639, 1201.396
1077.741, 1236.777
1078.843, 1151.654
1079.945, 1124.648
1081.046, 1196.167
1082.148, 1121.971
1083.249, 1100.605
1084.350, 1061.118
1085.451, 1101.858
1086.551, 1099.407
1087.652, 1025.479
1088.752, 1066.781
1089.853, 1000.531
1090.953, 907.2725
1092.053, 938.9663
1093.152, 1016.633
1094.252, 989.3179
1095.351, 955.0190
1096.451, 919.6191
1097.550, 900.4243
1098.649, 960.3711
1099.748, 815.9243
1100.846, 754.1016
1101.945, 823.9302
1103.043, 829.7612
1104.141, 888.7788
1105.239, 778.6479
1106.337, 879.5000
1107.434, 722.6162
1108.532, 725.9023
1109.629, 848.6963
1110.726, 791.4609
1111.823, 715.3799
1112.920, 813.3096
1114.017, 780.2505
1115.113, 881.2026
1116.210, 916.2388
1117.306, 811.2236
1118.402, 952.2061
1119.498, 874.1978
1120.593, 960.2065
1121.689, 938.2168
1122.784, 947.2505
1123.879, 886.0591
1124.974, 983.1230
1126.069, 1023.284
1127.164, 803.3613
1128.259, 668.4185
1129.353, 713.4814
1130.447, 587.5508
1131.541, 467.6265
1132.635, 556.7075
1133.729, 413.7939
1134.822, 493.8848
1135.916, 359.9805
1137.009, 418.0801
1138.102, 442.1836
1139.195, 396.2905
1140.288, 240.4009
1141.380, 282.5137
1142.473, 294.6289
1143.565, 314.7461
1144.657, 320.8652
1145.749, 246.0581
1146.841, 194.1787
1147.932, 123.3003
1149.024, 108.8779
1150.115, 92.98340
1151.206, 98.65967
1152.297, 117.7773
1153.388, 131.8931
1154.479, 174.0068
1155.569, 47.11719
1156.659, 28.24707
1157.750, 91.35059
1158.839, 40.54883
1159.929, 85.53564
1161.019, 39.74463
1162.108, 100.1802
1163.198, 83.15186
1164.287, 19.16162
1165.376, 4.816406
1166.465, 39.21143
1167.553, 3.738770
1168.642, 25.31885
1169.730, 17.60693
1170.818, 48.65430
1171.906, 97.56592
1172.994, 79.28760
1174.082, 34.13232
1175.170, 69.03271
1176.257, 53.10596
1177.344, 3.352539
1178.431, 45.61279
1179.518, 117.9082
1180.605, 23.27881
1181.691, 45.67480
1182.778, 55.08105
1183.864, 161.5601
1184.950, 45.14062
1186.036, 68.76318
1187.122, 54.44043
1188.207, 45.16650
1189.292, 42.04346
1190.378, 30.75049
1191.463, 19.60254
1192.548, 3.488770
1193.632, 2.598145
1194.717, 0.6616210
1195.801, 13.30078
1196.886, 39.29736
1197.970, 2.343750
1199.054, 80.41943
1200.137, 25.56738
1201.221, 22.24023
1202.305, 129.9736
1203.388, 13.71191
1204.471, 73.62842
1205.554, 48.04150
1206.637, 52.48535
1207.719, 71.99414
1208.802, 40.51465
1209.884, 25.08154
1210.966, 49.30078
1212.048, 35.33643
1213.130, 48.96826
1214.212, 79.25293
1215.293, 30.48193
1216.374, 25.72656
1217.456, 15.90625
1218.536, 3.948242
1219.617, 25.84619
1220.698, 64.19824
1221.778, 77.22168
1222.859, 107.2241
1223.939, 143.2061
1225.019, 119.1685
1226.099, 40.10986
1227.178, 82.02197
1228.258, 52.08691
1229.337, 46.72900
1230.417, 10.51660
1231.496, 18.26074
1232.574, 103.9648
1233.653, 78.65430
1234.732, 105.3208
1235.810, 157.9658
1236.888, 79.58887
1237.966, 72.18701
1239.044, 53.75928
1240.122, 56.30029
1241.199, 162.8120
1242.277, 172.3008
1243.354, 136.7686
1244.431, 199.2144
1245.508, 112.6372
1246.585, 129.0371
1247.661, 181.4141
1248.738, 178.7681
1249.814, 135.0991
1250.890, 155.4272
1251.966, 136.4775
1253.042, 41.01514
1254.117, 136.2578
1255.193, 116.4775
1256.268, 139.6724
1257.343, 202.8423
1258.418, 204.9888
1259.493, 194.1118
1260.567, 166.2109
1261.642, 193.2861
1262.716, 228.3379
1263.790, 209.6694
1264.864, 315.3677
1265.938, 188.3467
1267.011, 228.3018
1268.085, 189.2319
1269.158, 310.1387
1270.231, 363.0210
1271.304, 272.8794
1272.377, 282.7134
1273.450, 280.5225
1274.522, 151.3081
1275.594, 280.0713
1276.666, 236.8110
1277.738, 260.5273
1278.810, 220.2192
1279.882, 244.8867
1280.953, 182.5293
1282.025, 271.1484
1283.096, 258.7417
1284.167, 262.3110
1285.238, 173.8545
1286.308, 183.3740
1287.379, 305.8682
1288.449, 322.3223
1289.519, 150.7666
1290.589, 278.1851
1291.659, 255.0776
1292.729, 213.0249
1293.798, 323.0044
1294.868, 272.3213
1295.937, 245.2642
1297.006, 368.5283
1298.075, 244.9546
1299.143, 324.1768
1300.212, 218.3750
1301.280, 256.3242
1302.348, 272.4746
1303.416, 289.6006
1304.484, 140.0464
1305.552, 213.2847
1306.620, 358.1216
1307.687, 212.5859
1308.754, 312.3921
1309.821, 290.0146
1310.888, 152.2764
1311.955, 181.6763
1313.021, 352.2798
1314.088, 268.0796
1315.154, 282.2905
1316.220, 315.2930
1317.286, 341.7725
1318.352, 391.3467
1319.417, 378.5273
1320.483, 390.1382
1321.548, 296.9971
1322.613, 370.9746
1323.678, 344.7266
1324.743, 325.5034
1325.807, 164.5513
1326.872, 265.8237
1327.936, 230.1011
1329.000, 230.7295
1330.064, 286.0112
1331.128, 241.9072
1332.191, 228.6582
1333.255, 346.9199
1334.318, 315.7041
1335.381, 286.2178
1336.444, 338.7222
1337.507, 244.7383
1338.569, 368.6460
1339.632, 288.0352
1340.694, 319.1470
1341.756, 280.5356
1342.818, 226.9512
1343.880, 174.1484
1344.941, 209.6094
1346.003, 197.1646
1347.064, 271.2803
1348.125, 230.4907
1349.186, 244.7158
1350.247, 233.9932
1351.308, 339.3032
1352.368, 219.5996
1353.428, 306.8833
1354.489, 270.2734
1355.549, 272.5894
1356.608, 247.6416
1357.668, 124.0903
1358.727, 222.9189
1359.787, 254.1001
1360.846, 177.9849
1361.905, 250.1416
1362.964, 290.3203
1364.022, 166.4883
1365.081, 203.3994
1366.139, 241.1426
1367.197, 79.43213
1368.255, 174.7427
1369.313, 263.9932
1370.371, 189.2456
1371.428, 222.4580
1372.486, 205.7153
1373.543, 170.7188
1374.600, 159.7852
1375.657, 250.8965
1376.713, 137.9478
1377.770, 209.9370
1378.826, 234.9707
1379.882, 157.1104
1380.938, 192.3452
1381.994, 132.3911
1383.050, 233.2739
1384.106, 242.2676
1385.161, 197.2554
1386.216, 187.2354
1387.271, 164.2090
1388.326, 134.1768
1389.381, 162.2368
1390.435, 101.1924
1391.490, 140.1421
1392.544, 101.0859
1393.598, 172.0249
1394.652, 201.9590
1395.705, 197.0288
1396.759, 211.3613
1397.812, 149.8706
1398.866, 195.8501
1399.919, 145.7583
1400.972, 162.7783
1402.024, 126.3740
1403.077, 54.41260
1404.129, 121.5684
1405.181, 115.5415
1406.233, 198.4062
1407.285, 128.5186
1408.337, 134.3774
1409.389, 104.2329
1410.440, 83.08301
1411.491, 154.9263
1412.542, 58.74658
1413.593, 133.5859
1414.644, 30.44141
1415.695, 122.2046
1416.745, 107.8345
1417.795, 52.59033
1418.845, 98.36328
1419.895, 22.14844
1420.945, 57.97998
1421.995, 95.76514
1423.044, 64.59229
1424.093, 133.3721
1425.142, 56.15186
1426.191, 83.03711
1427.240, 95.65088
1428.289, 75.40967
1429.337, 49.15820
1430.385, 22.90137
1431.433, 276.5210
1432.481, 107.2822
1433.529, 99.06348
1434.577, 256.8354
1435.624, 138.6553
1436.672, 3.699219
1437.719, 113.4858
1438.766, 133.3184
1439.812, 156.2988
1440.859, 141.5664
1441.905, 114.4912
1442.952, 184.5498
1443.998, 132.9922
1445.044, 129.9595
1446.090, 196.9043
1447.135, 167.7197
1448.181, 130.5059
1449.226, 153.1006
1450.271, 134.8828
1451.316, 220.6978
1452.361, 162.5728
1453.405, 186.4951
1454.450, 113.4839
1455.494, 156.5337
1456.538, 208.5933
1457.582, 141.6987
1458.626, 252.8374
1459.670, 214.9893
1460.713, 166.1719
1461.757, 217.4038
1462.800, 225.6528
1463.843, 122.8975
1464.886, 168.1426
1465.928, 177.4199
1466.971, 14.74902
1468.013, 121.1035
1469.055, 81.45020
1470.097, 22.79883
1471.139, 158.1602
1472.181, 5.537109
1473.222, 110.9136
1474.263, 191.2910
1475.305, 43.67285
1476.346, 74.03174
1477.386, 80.36670
1478.427, 103.7261
1479.468, 69.09180
1480.508, 10.46387
1481.548, 149.8413
1482.588, 193.2251
1483.628, 68.61621
1484.668, 141.0146
1485.707, 40.58008
1486.747, 3.834473
1487.786, 35.25732
1488.825, 50.68066
1489.864, 54.89209
1490.902, 54.09326
1491.941, 30.99512
1492.979, 33.45605
1494.017, 11.93066
1495.055, 9.302246
1496.093, 16.80908
1497.131, 4.169922
1498.168, 121.7085
1499.206, 43.26562
1500.243, 33.84229
1501.280, 68.43945
1502.317, 91.08496
1503.354, 180.5576
1504.390, 17.22217
1505.426, 72.62451
1506.463, 33.32861
1507.499, 77.05078
1508.535, 43.79053
1509.570, 62.50928
1510.606, 87.31738
1511.641, 64.11279
1512.676, 87.94922
1513.711, 29.81592
1514.746, 72.70996
1515.781, 76.62939
1516.816, 106.5732
1517.850, 125.5400
1518.884, 119.5303
1519.918, 24.54492
1520.952, 175.3442
1521.986, 91.23438
1523.019, 44.95947
1524.053, 95.04932
1525.086, 35.47607
1526.119, 15.69287
1527.152, 31.13867
1528.185, 3.332520
1529.217, 47.55811
1530.250, 94.45117
1531.282, 5.526367
1532.314, 69.71338
1533.346, 97.64258
1534.377, 161.9956
1535.409, 100.3130
1536.440, 153.5425
1537.472, 144.6582
1538.503, 36.30762
1539.534, 140.6479
1540.564, 74.19824
1541.595, 164.8774
1542.625, 106.6514
1543.656, 83.99268
1544.686, 52.71191
1545.716, 64.03955
1546.745, 55.39307
1547.775, 121.3008
1548.804, 183.1997
1549.834, 230.9893
1550.863, 237.9336
1551.892, 281.5522
1552.920, 372.1035
1553.949, 458.0024
1554.977, 360.8037
1556.006, 198.2847
1557.034, 68.88184
1558.062, 122.4395
1559.089, 72.54541
1560.117, 21.53857
1561.144, 145.9297
1562.172, 148.8574
1563.199, 62.15088
1564.226, 9.791504
1565.252, 198.5308
1566.279, 70.56982
1567.305, 7.361328
1568.332, 227.2925
1569.358, 109.8042
1570.384, 196.7397
1571.409, 0.6347660
1572.435, 0.0000000E+00
##END=



