##NAMES=Dravite
##RRUFFID=R060280
##IDEAL CHEMISTRY=NaMg_3_Al_6_(Si_6_O_18_)(BO_3_)_3_(OH)_3_OH
##LOCALITY=near Merelani, Tanzania
##OWNER=RRUFF
##SOURCE=Herb Obodda
##DESCRIPTION=Green fragment
##STATUS=The identification of this mineral has been confirmed by X-ray diffraction and chemical analysis
##URL=rruff.info/R060280
##MEASURED CHEMISTRY=(Na_0.45_Ca_0.40_[box]_0.15_)(Mg_0.89_Al_0.07_Ti_0.04_)_3_Al_6_(BO_3_)_3_(Si_0.93_B_0.07_)_6_O_18_((OH)_0.95_O_0.05_)_4_
##PIN_ID=L01324
##ORIENTATION=Laser parallel to a* (1 0 0). Fiducial mark perpendicular to laser is parallel to c [0 0 1]
168.4860, 0.0000000E+00
169.7110, 2.156250
170.9360, 211.1289
172.1610, 165.3711
173.3850, 445.9434
174.6100, 374.2168
175.8340, 384.7969
177.0580, 159.4102
178.2820, 191.2422
179.5050, 20.91406
180.7290, 8.515625
181.9520, 88.92188
183.1760, 202.3789
184.3990, 455.1152
185.6220, 471.1797
186.8450, 784.0059
188.0670, 926.4727
189.2900, 1371.096
190.5120, 1598.512
191.7340, 1807.449
192.9560, 2118.697
194.1780, 2283.098
195.4000, 2642.529
196.6220, 2996.898
197.8430, 3434.123
199.0640, 4066.145
200.2860, 4657.588
201.5070, 5221.824
202.7270, 5933.691
203.9480, 6596.041
205.1690, 6838.010
206.3890, 7502.797
207.6090, 8336.441
208.8290, 9355.967
210.0490, 10383.41
211.2690, 11045.82
212.4890, 11751.22
213.7080, 12490.65
214.9280, 12599.14
216.1470, 12309.71
217.3660, 11625.38
218.5850, 11215.19
219.8030, 10158.14
221.0220, 8957.266
222.2400, 7930.570
223.4590, 7296.070
224.6770, 6593.773
225.8950, 6225.695
227.1120, 5792.822
228.3300, 5513.502
229.5480, 5348.842
230.7650, 5304.033
231.9820, 5425.865
233.1990, 5634.070
234.4160, 5979.398
235.6330, 6479.127
236.8490, 6730.949
238.0660, 7029.680
239.2820, 7285.508
240.4980, 7455.367
241.7140, 7677.199
242.9300, 7408.156
244.1460, 7181.371
245.3610, 6609.799
246.5770, 5998.404
247.7920, 5271.113
249.0070, 4728.771
250.2220, 4214.984
251.4370, 3616.307
252.6510, 2943.893
253.8660, 2523.752
255.0800, 2038.883
256.2940, 1756.289
257.5080, 1912.975
258.7220, 2213.936
259.9360, 2221.178
261.1490, 1668.699
262.3630, 1624.492
263.5760, 1641.564
264.7890, 1933.912
266.0020, 2205.535
267.2150, 2355.434
268.4270, 2582.611
269.6400, 2746.295
270.8520, 2882.793
272.0640, 3033.801
273.2760, 2860.076
274.4880, 2934.625
275.7000, 2709.439
276.9120, 2357.512
278.1230, 2006.826
279.3340, 1766.389
280.5450, 1614.197
281.7560, 1045.254
282.9670, 764.5586
284.1780, 497.1074
285.3880, 555.9121
286.5980, 284.9609
287.8090, 207.2637
289.0190, 95.81445
290.2290, 88.61719
291.4380, 16.67188
292.6480, 193.0215
293.8570, 51.53516
295.0670, 104.3457
296.2760, 51.59180
297.4850, 138.7246
298.6930, 169.3828
299.9020, 48.53711
301.1110, 161.7227
302.3190, 283.3320
303.5270, 306.1133
304.7350, 245.0918
305.9430, 507.4102
307.1510, 228.1680
308.3580, 435.6191
309.5660, 455.9082
310.7730, 401.2324
311.9800, 146.6191
313.1870, 5.884766
314.3940, 284.9316
315.6010, 611.7090
316.8070, 781.4219
318.0130, 1260.490
319.2200, 1345.291
320.4260, 1740.410
321.6310, 2083.982
322.8370, 2537.451
324.0430, 3190.531
325.2480, 3696.961
326.4540, 4382.594
327.6590, 5119.471
328.8640, 5886.367
330.0680, 6606.566
331.2730, 7188.055
332.4780, 7950.824
333.6820, 8813.859
334.8860, 9580.152
336.0900, 9895.691
337.2940, 10302.48
338.4980, 10629.50
339.7010, 10588.77
340.9050, 10833.25
342.1080, 10778.97
343.3110, 10382.91
344.5140, 9839.070
345.7170, 9637.445
346.9200, 9461.031
348.1220, 9479.818
349.3240, 9411.781
350.5270, 9468.918
351.7290, 10159.22
352.9310, 10876.70
354.1320, 11824.35
355.3340, 13145.18
356.5350, 14746.18
357.7370, 16498.35
358.9380, 18731.71
360.1390, 21402.26
361.3400, 23622.03
362.5400, 26488.99
363.7410, 29179.16
364.9410, 31462.52
366.1410, 33604.06
367.3410, 35398.79
368.5410, 36051.68
369.7410, 36308.75
370.9400, 35818.01
372.1400, 34283.45
373.3390, 32201.06
374.5380, 29747.84
375.7370, 27063.73
376.9360, 24227.80
378.1350, 21734.03
379.3330, 19210.42
380.5310, 17335.85
381.7300, 15284.27
382.9280, 13963.61
384.1260, 12554.82
385.3230, 11499.04
386.5210, 10355.44
387.7180, 9479.031
388.9160, 8801.812
390.1130, 8211.785
391.3100, 7514.941
392.5060, 7027.285
393.7030, 6565.818
394.9000, 6134.539
396.0960, 5812.391
397.2920, 5452.705
398.4880, 5210.828
399.6840, 4887.297
400.8800, 4513.953
402.0750, 4299.795
403.2710, 3979.818
404.4660, 3878.029
405.6610, 3720.422
406.8560, 3085.998
408.0510, 3036.758
409.2450, 2730.697
410.4400, 2243.818
411.6340, 1656.119
412.8280, 1721.602
414.0220, 1432.270
415.2160, 1226.109
416.4100, 1151.133
417.6030, 1045.332
418.7970, 946.7090
419.9900, 714.2656
421.1830, 815.0547
422.3760, 1081.902
423.5690, 1032.988
424.7610, 1322.248
425.9540, 1579.863
427.1460, 1839.266
428.3380, 2089.117
429.5300, 2271.834
430.7220, 2495.857
431.9140, 2650.949
433.1050, 2743.906
434.2970, 2956.078
435.4880, 3049.889
436.6790, 3380.904
437.8700, 3513.367
439.0610, 3435.559
440.2510, 3500.707
441.4420, 3802.184
442.6320, 3785.066
443.8220, 4098.600
445.0120, 4026.703
446.2020, 3923.994
447.3910, 3838.062
448.5810, 3851.205
449.7700, 3786.654
450.9600, 3555.922
452.1490, 3148.111
453.3370, 3324.520
454.5260, 2908.604
455.7150, 2829.650
456.9030, 2530.053
458.0910, 2507.707
459.2800, 2503.531
460.4670, 2302.529
461.6550, 2260.701
462.8430, 2080.234
464.0300, 1797.592
465.2180, 1748.316
466.4050, 1426.234
467.5920, 1328.342
468.7790, 1229.656
469.9650, 1626.172
471.1520, 1319.902
472.3380, 1492.818
473.5250, 1443.920
474.7110, 1467.207
475.8970, 1684.680
477.0820, 1745.332
478.2680, 1884.174
479.4540, 2037.195
480.6390, 2087.400
481.8240, 2292.789
483.0090, 2440.359
484.1940, 2704.113
485.3780, 2946.047
486.5630, 3280.164
487.7470, 3419.461
488.9320, 3264.938
490.1160, 4077.596
491.3000, 3982.430
492.4830, 4556.420
493.6670, 5308.643
494.8500, 5543.020
496.0340, 6093.572
497.2170, 6430.305
498.4000, 7034.215
499.5820, 7485.305
500.7650, 7774.570
501.9480, 8261.285
503.1300, 8661.672
504.3120, 8531.625
505.4940, 8515.707
506.6760, 8270.102
507.8580, 8043.531
509.0390, 7685.959
510.2210, 7398.627
511.4020, 6843.473
512.5830, 6399.488
513.7640, 5950.678
514.9450, 5402.041
516.1250, 5033.574
517.3060, 4742.281
518.4860, 4830.158
519.6660, 4958.207
520.8460, 4848.426
522.0260, 5197.820
523.2060, 5456.385
524.3850, 6036.119
525.5650, 6767.027
526.7440, 7454.109
527.9230, 7935.367
529.1020, 8968.797
530.2810, 9429.402
531.4590, 10179.18
532.6380, 10638.13
533.8160, 11167.25
534.9940, 11357.07
536.1720, 11533.02
537.3500, 11361.66
538.5270, 11185.46
539.7050, 10812.44
540.8820, 10295.52
542.0590, 9749.910
543.2360, 8963.395
544.4130, 8461.051
545.5900, 7670.877
546.7660, 6984.867
547.9430, 6245.027
549.1190, 5451.352
550.2950, 4897.844
551.4710, 4390.504
552.6470, 3572.326
553.8220, 3191.316
554.9980, 2795.473
556.1730, 2113.789
557.3480, 1779.275
558.5230, 1586.918
559.6980, 1348.729
560.8730, 907.7012
562.0470, 516.8359
563.2220, 746.1309
564.3960, 590.5879
565.5700, 188.2031
566.7440, 20.01758
567.9170, 193.1094
569.0910, 346.9512
570.2640, 37.16992
571.4380, 437.0801
572.6110, 419.0273
573.7840, 353.0078
574.9570, 552.9922
576.1290, 700.0664
577.3020, 693.2949
578.4740, 687.6445
579.6460, 521.1426
580.8180, 445.7188
581.9900, 581.3320
583.1620, 348.0488
584.3330, 213.7734
585.5040, 158.4453
586.6760, 288.0176
587.8470, 106.5254
589.0180, 67.88867
590.1880, 75.89844
591.3590, 150.9453
592.5290, 328.2715
593.7000, 325.8906
594.8700, 602.8945
596.0400, 836.3125
597.2090, 865.0645
598.3790, 880.1543
599.5490, 1228.574
600.7180, 1280.348
601.8870, 1462.492
603.0560, 1386.982
604.2250, 1399.824
605.3940, 1853.018
606.5620, 1816.506
607.7300, 1807.316
608.8990, 1980.467
610.0670, 1906.902
611.2350, 2256.604
612.4020, 2277.576
613.5700, 2685.840
614.7370, 2924.373
615.9050, 2702.125
617.0720, 3277.139
618.2390, 3545.316
619.4060, 4050.672
620.5720, 4407.197
621.7390, 4864.885
622.9050, 5264.178
624.0710, 5828.725
625.2370, 5945.867
626.4030, 6362.148
627.5690, 6483.557
628.7340, 5988.104
629.9000, 5498.781
631.0650, 4937.588
632.2300, 4403.525
633.3950, 3447.590
634.5600, 2920.781
635.7240, 1980.104
636.8890, 1337.549
638.0530, 1074.121
639.2170, 692.8164
640.3810, 235.6367
641.5450, 12.41992
642.7080, 203.3789
643.8720, 58.31445
645.0350, 57.16992
646.1980, 11.94727
647.3610, 27.37305
648.5240, 434.7988
649.6870, 493.3418
650.8490, 613.0020
652.0120, 1142.779
653.1740, 1374.668
654.3360, 1407.670
655.4980, 2072.787
656.6600, 2331.016
657.8210, 2498.355
658.9830, 2807.809
660.1440, 2916.369
661.3050, 3359.039
662.4660, 3540.816
663.6270, 3796.701
664.7870, 4207.693
665.9480, 4026.793
667.1080, 4443.996
668.2680, 4268.301
669.4280, 4306.711
670.5880, 4185.223
671.7480, 4104.838
672.9070, 4219.551
674.0670, 3943.363
675.2260, 4180.275
676.3850, 3570.285
677.5440, 3658.391
678.7030, 3686.594
679.8610, 3691.891
681.0200, 3781.283
682.1780, 3822.170
683.3360, 3879.348
684.4940, 4009.016
685.6520, 4247.777
686.8090, 4460.629
687.9670, 5236.568
689.1240, 5474.596
690.2810, 6259.711
691.4380, 7182.912
692.5950, 8020.199
693.7520, 9419.570
694.9080, 10413.02
696.0650, 11946.56
697.2210, 13346.18
698.3770, 14593.88
699.5330, 16059.67
700.6880, 17712.53
701.8440, 19173.46
702.9990, 20397.48
704.1550, 21662.57
705.3100, 22360.74
706.4650, 22304.80
707.6190, 22305.33
708.7740, 21856.60
709.9290, 20421.14
711.0830, 19255.00
712.2370, 17478.82
713.3910, 15712.02
714.5450, 13589.24
715.6980, 12097.07
716.8520, 10550.33
718.0050, 9161.988
719.1580, 8247.160
720.3110, 6853.217
721.4640, 6379.578
722.6170, 5555.768
723.7700, 5240.543
724.9220, 4850.986
726.0740, 4367.635
727.2260, 4592.982
728.3780, 4441.662
729.5300, 4609.334
730.6810, 4639.760
731.8330, 4788.953
732.9840, 5200.766
734.1350, 5422.551
735.2860, 5840.367
736.4370, 6420.854
737.5880, 6832.678
738.7380, 7296.635
739.8880, 8127.793
741.0390, 8882.508
742.1890, 9896.512
743.3380, 11166.43
744.4880, 12316.24
745.6380, 13566.64
746.7870, 15345.28
747.9360, 17324.41
749.0850, 18895.01
750.2340, 20788.92
751.3830, 23103.07
752.5310, 25086.34
753.6800, 27403.22
754.8280, 29684.20
755.9760, 31081.14
757.1240, 32805.16
758.2720, 33647.49
759.4190, 34145.38
760.5670, 34030.87
761.7140, 33148.84
762.8610, 31883.39
764.0080, 30354.24
765.1550, 28906.02
766.3020, 27281.16
767.4480, 25691.93
768.5950, 24334.70
769.7410, 23075.46
770.8870, 21740.21
772.0330, 21189.97
773.1780, 20723.71
774.3240, 19803.46
775.4690, 18887.19
776.6140, 18519.92
777.7590, 18124.63
778.9040, 17802.34
780.0490, 17272.77
781.1940, 17325.70
782.3380, 16816.22
783.4820, 16777.78
784.6260, 17011.19
785.7700, 16984.80
786.9140, 16811.43
788.0580, 16873.05
789.2010, 16820.66
790.3450, 17281.25
791.4880, 17028.83
792.6310, 17245.40
793.7730, 17161.94
794.9160, 17053.47
796.0590, 17407.99
797.2010, 17029.49
798.3430, 16646.96
799.4850, 16974.42
800.6270, 16940.86
801.7690, 17072.28
802.9100, 17353.68
804.0520, 17829.05
805.1930, 18466.41
806.3340, 19057.74
807.4750, 20080.05
808.6160, 21216.33
809.7560, 22667.58
810.8970, 23703.82
812.0370, 25304.01
813.1770, 26591.19
814.3170, 27810.33
815.4570, 28663.44
816.5960, 29675.53
817.7360, 30039.58
818.8750, 30439.61
820.0140, 29933.60
821.1530, 29304.55
822.2920, 28801.47
823.4310, 27516.35
824.5690, 26478.21
825.7070, 25103.02
826.8460, 23727.79
827.9840, 22080.53
829.1220, 20673.23
830.2590, 19030.89
831.3970, 17837.51
832.5340, 16340.09
833.6710, 14895.63
834.8080, 13774.12
835.9450, 12580.57
837.0820, 11556.98
838.2190, 10755.35
839.3550, 9539.660
840.4910, 8907.932
841.6270, 7639.156
842.7630, 6919.336
843.8990, 5825.479
845.0350, 5260.621
846.1700, 4473.797
847.3060, 3922.939
848.4410, 3443.129
849.5760, 2692.363
850.7100, 2028.625
851.8450, 1819.959
852.9800, 1399.395
854.1140, 1210.930
855.2480, 1109.562
856.3820, 888.2578
857.5160, 915.9941
858.6500, 754.8027
859.7830, 690.1699
860.9170, 610.4551
862.0500, 558.2617
863.1830, 521.0684
864.3160, 445.8438
865.4480, 242.5664
866.5810, 108.8125
867.7130, 37.42969
868.8460, 346.2500
869.9780, 517.4375
871.1100, 371.0859
872.2410, 474.1191
873.3730, 444.5918
874.5050, 539.4922
875.6360, 587.8672
876.7670, 514.7480
877.8980, 533.0977
879.0290, 529.9238
880.1590, 319.2266
881.2900, 422.8945
882.4200, 488.9824
883.5500, 288.5273
884.6800, 215.4258
885.8100, 235.6367
886.9400, 318.1680
888.0690, 224.0645
889.1990, 58.27344
890.3280, 218.7109
891.4570, 323.5410
892.5860, 91.68555
893.7140, 199.6855
894.8430, 272.5938
895.9710, 298.4492
897.1000, 390.1953
898.2280, 425.8594
899.3560, 698.4238
900.4830, 756.9492
901.6110, 654.4688
902.7380, 967.9375
903.8660, 809.3418
904.9930, 1023.688
906.1200, 1039.008
907.2460, 1215.285
908.3730, 1228.508
909.5000, 1175.691
910.6260, 1351.809
911.7520, 1321.865
912.8780, 1574.871
914.0040, 1430.834
915.1290, 1596.742
916.2550, 1712.613
917.3800, 1479.500
918.5050, 1689.373
919.6300, 1729.238
920.7550, 1592.086
921.8800, 1763.908
923.0040, 1878.693
924.1290, 1761.428
925.2530, 1910.127
926.3770, 1871.775
927.5010, 1973.371
928.6250, 2007.900
929.7480, 2025.404
930.8720, 2116.914
931.9950, 2093.402
933.1180, 2191.848
934.2410, 2254.215
935.3640, 2255.566
936.4860, 2406.852
937.6090, 2351.084
938.7310, 2488.242
939.8530, 2269.326
940.9750, 2614.332
942.0970, 2511.258
943.2180, 2695.105
944.3400, 2840.873
945.4610, 2906.562
946.5820, 2943.172
947.7030, 3071.703
948.8240, 3090.152
949.9450, 3269.518
951.0650, 3383.805
952.1860, 3579.008
953.3060, 3669.129
954.4260, 3684.168
955.5460, 3773.125
956.6650, 3850.000
957.7850, 3965.104
958.9040, 4123.434
960.0230, 4265.129
961.1420, 4457.676
962.2610, 4661.137
963.3800, 4780.518
964.4990, 4994.336
965.6170, 5088.029
966.7350, 5345.160
967.8530, 5438.207
968.9710, 5553.174
970.0890, 5575.057
971.2070, 5883.855
972.3240, 5859.572
973.4410, 5835.207
974.5580, 6026.756
975.6750, 5927.223
976.7920, 6274.605
977.9090, 6123.908
979.0250, 6188.127
980.1410, 6027.260
981.2580, 6076.311
982.3740, 6130.273
983.4890, 5949.156
984.6050, 6076.959
985.7200, 5891.668
986.8360, 5780.295
987.9510, 5700.838
989.0660, 5707.289
990.1810, 5473.656
991.2950, 5460.934
992.4100, 5339.121
993.5240, 5306.225
994.6390, 5387.232
995.7530, 5351.156
996.8660, 5144.906
997.9800, 5520.381
999.0940, 5324.174
1000.207, 5856.852
1001.320, 6244.762
1002.433, 6586.895
1003.546, 6456.389
1004.659, 6343.896
1005.772, 5989.354
1006.884, 5495.127
1007.996, 5262.541
1009.108, 5563.801
1010.220, 5530.840
1011.332, 5749.301
1012.444, 6012.994
1013.555, 6048.572
1014.666, 6494.162
1015.777, 6712.602
1016.888, 6991.121
1017.999, 7253.838
1019.110, 7668.018
1020.220, 7951.207
1021.331, 8312.814
1022.441, 8744.035
1023.551, 9070.586
1024.661, 9546.090
1025.770, 9998.092
1026.880, 10104.17
1027.989, 10260.72
1029.098, 10645.48
1030.207, 10804.48
1031.316, 11523.31
1032.425, 11781.29
1033.533, 12331.38
1034.642, 12824.48
1035.750, 13100.75
1036.858, 13692.71
1037.966, 13968.83
1039.073, 14413.81
1040.181, 15361.30
1041.288, 15727.82
1042.396, 16206.20
1043.503, 16780.16
1044.610, 17124.27
1045.716, 17871.72
1046.823, 18245.66
1047.929, 18406.46
1049.036, 18570.57
1050.142, 19210.39
1051.248, 19052.66
1052.353, 19325.07
1053.459, 19407.99
1054.564, 19355.85
1055.670, 19748.53
1056.775, 19899.38
1057.880, 20365.44
1058.985, 20457.04
1060.089, 20950.73
1061.194, 21305.43
1062.298, 21725.25
1063.402, 22119.29
1064.506, 22748.61
1065.610, 23092.69
1066.713, 23666.92
1067.817, 24155.91
1068.920, 24868.33
1070.023, 25318.25
1071.126, 25436.12
1072.229, 25988.01
1073.332, 25655.87
1074.435, 25510.40
1075.537, 25465.93
1076.639, 24932.26
1077.741, 24355.78
1078.843, 23515.00
1079.945, 22901.21
1081.046, 21811.99
1082.148, 21371.72
1083.249, 20388.40
1084.350, 19412.04
1085.451, 18202.62
1086.551, 17100.15
1087.652, 16064.64
1088.752, 14966.08
1089.853, 13895.47
1090.953, 12915.82
1092.053, 12015.43
1093.152, 11446.36
1094.252, 10493.56
1095.351, 9742.719
1096.451, 9309.828
1097.550, 8394.891
1098.649, 8088.906
1099.748, 7587.879
1100.846, 7046.801
1101.945, 6795.680
1103.043, 6336.518
1104.141, 5759.307
1105.239, 5549.055
1106.337, 5026.754
1107.434, 4872.412
1108.532, 4905.027
1109.629, 4476.602
1110.726, 4149.127
1111.823, 4076.611
1112.920, 3588.053
1114.017, 3586.453
1115.113, 3378.811
1116.210, 2999.127
1117.306, 2856.402
1118.402, 2638.318
1119.498, 2593.832
1120.593, 2390.984
1121.689, 2318.098
1122.784, 2389.172
1123.879, 1832.203
1124.974, 1938.197
1126.069, 1896.154
1127.164, 1533.072
1128.259, 1548.951
1129.353, 1546.795
1130.447, 1351.602
1131.541, 1346.377
1132.635, 1289.135
1133.729, 1075.943
1134.822, 856.7852
1135.916, 887.7461
1137.009, 900.8652
1138.102, 651.1074
1139.195, 783.5039
1140.288, 375.0410
1141.380, 381.7539
1142.473, 370.6484
1143.565, 151.7070
1144.657, 191.9297
1145.749, 211.3223
1146.841, 96.82617
1147.932, 254.4668
1149.024, 83.26367
1150.115, 93.16602
1151.206, 44.14844
1152.297, 19.21484
1153.388, 11.61328
1154.479, 4.625000
1155.569, 1.898438
1156.659, 46.24023
1157.750, 36.43750
1158.839, 129.1387
1159.929, 236.9277
1161.019, 1.865234
1162.108, 47.83398
1163.198, 70.13477
1164.287, 113.9199
1165.376, 224.0840
1166.465, 89.41602
1167.553, 26.15625
1168.642, 33.31445
1169.730, 158.8535
1170.818, 87.52734
1171.906, 40.29883
1172.994, 102.1445
1174.082, 8.906250
1175.170, 17.09375
1176.257, 72.15430
1177.344, 80.30469
1178.431, 46.54492
1179.518, 67.86719
1180.605, 127.2734
1181.691, 118.9395
1182.778, 153.4395
1183.864, 146.2109
1184.950, 130.1113
1186.036, 111.8125
1187.122, 67.26367
1188.207, 119.4805
1189.292, 64.81055
1190.378, 67.22461
1191.463, 7.724609
1192.548, 226.2793
1193.632, 137.0039
1194.717, 255.8496
1195.801, 93.87695
1196.886, 66.99805
1197.970, 206.1621
1199.054, 2.478516
1200.137, 63.84570
1201.221, 6.708984
1202.305, 75.21680
1203.388, 70.69141
1204.471, 133.1348
1205.554, 121.1699
1206.637, 152.9375
1207.719, 94.29102
1208.802, 152.6172
1209.884, 140.9160
1210.966, 311.1895
1212.048, 434.4355
1213.130, 371.6582
1214.212, 632.8574
1215.293, 597.0352
1216.374, 861.1895
1217.456, 934.3203
1218.536, 584.4258
1219.617, 808.5137
1220.698, 913.5762
1221.778, 853.6172
1222.859, 1143.639
1223.939, 1135.637
1225.019, 1122.613
1226.099, 1146.570
1227.178, 1400.508
1228.258, 1423.424
1229.337, 1497.320
1230.417, 1541.197
1231.496, 1633.053
1232.574, 1888.893
1233.653, 2139.711
1234.732, 1953.512
1235.810, 1867.293
1236.888, 1877.055
1237.966, 2095.801
1239.044, 2137.543
1240.122, 2112.279
1241.199, 2176.648
1242.277, 2209.561
1243.354, 2079.391
1244.431, 2272.078
1245.508, 2103.750
1246.585, 2031.408
1247.661, 2156.051
1248.738, 2052.676
1249.814, 1919.301
1250.890, 2168.908
1251.966, 2241.529
1253.042, 1782.137
1254.117, 2017.730
1255.193, 1999.311
1256.268, 1822.879
1257.343, 2123.432
1258.418, 2070.973
1259.493, 2027.500
1260.567, 1864.018
1261.642, 2111.521
1262.716, 2240.016
1263.790, 2238.496
1264.864, 2306.963
1265.938, 2339.479
1267.011, 2343.859
1268.085, 2386.289
1269.158, 2379.703
1270.231, 2418.104
1271.304, 2379.486
1272.377, 2369.855
1273.450, 2271.664
1274.522, 2307.627
1275.594, 2256.658
1276.666, 2242.193
1277.738, 2223.375
1278.810, 2364.820
1279.882, 2224.287
1280.953, 2092.377
1282.025, 2148.236
1283.096, 1976.389
1284.167, 2214.998
1285.238, 1830.514
1286.308, 1904.516
1287.379, 2014.301
1288.449, 1870.258
1289.519, 1978.379
1290.589, 1973.625
1291.659, 1997.490
1292.729, 2066.570
1293.798, 1908.168
1294.868, 2087.795
1295.937, 2170.822
1297.006, 2055.568
1298.075, 1975.010
1299.143, 1749.539
1300.212, 1973.500
1301.280, 1722.383
1302.348, 1821.346
1303.416, 1999.678
1304.484, 1706.807
1305.552, 1831.543
1306.620, 1927.736
1307.687, 1750.018
1308.754, 1882.934
1309.821, 1926.098
1310.888, 1922.758
1311.955, 1878.234
1313.021, 1871.400
1314.088, 1794.064
1315.154, 1811.121
1316.220, 1841.973
1317.286, 1840.547
1318.352, 1720.553
1319.417, 1711.869
1320.483, 1652.246
1321.548, 1580.721
1322.613, 1568.215
1323.678, 1509.264
1324.743, 1561.488
1325.807, 1486.014
1326.872, 1318.736
1327.936, 1314.488
1329.000, 1150.682
1330.064, 964.8848
1331.128, 858.0098
1332.191, 957.1270
1333.255, 802.5195
1334.318, 813.8750
1335.381, 741.3789
1336.444, 554.6504
1337.507, 752.1797
1338.569, 1180.678
1339.632, 828.5605
1340.694, 775.4492
1341.756, 516.3418
1342.818, 487.2480
1343.880, 428.1602
1344.941, 704.0801
1346.003, 628.0117
1347.064, 563.9531
1348.125, 688.9004
1349.186, 451.8574
1350.247, 614.8262
1351.308, 522.8027
1352.368, 779.7910
1353.428, 572.7891
1354.489, 646.8008
1355.549, 698.8223
1356.608, 621.8574
1357.668, 716.9023
1358.727, 571.9609
1359.787, 642.0352
1360.846, 870.1211
1361.905, 765.2188
1362.964, 686.3320
1364.022, 858.4590
1365.081, 880.6016
1366.139, 755.9141
1367.197, 881.6816
1368.255, 971.8730
1369.313, 922.2383
1370.371, 1154.645
1371.428, 1002.785
1372.486, 1022.043
1373.543, 1225.320
1374.600, 1202.613
1375.657, 1143.926
1376.713, 1173.881
1377.770, 1189.689
1378.826, 1314.725
1379.882, 1321.182
1380.938, 1325.594
1381.994, 1461.027
1383.050, 1203.480
1384.106, 1382.957
1385.161, 1410.453
1386.216, 1223.973
1387.271, 1102.516
1388.326, 1209.082
1389.381, 1254.670
1390.435, 1236.283
1391.490, 1176.920
1392.544, 1183.582
1393.598, 1052.270
1394.652, 1024.652
1395.705, 977.7227
1396.759, 951.4883
1397.812, 936.2852
1398.866, 1008.107
1399.919, 913.9395
1400.972, 697.8438
1402.024, 757.7598
1403.077, 584.7070
1404.129, 455.6875
1405.181, 529.7051
1406.233, 451.7559
1407.285, 322.8438
1408.337, 483.9297
1409.389, 530.0176
1410.440, 320.1465
1411.491, 439.3027
1412.542, 290.4570
1413.593, 172.6094
1414.644, 366.7148
1415.695, 43.89453
1416.745, 166.1738
1417.795, 276.4922
1418.845, 330.8652
1419.895, 11.27148
1420.945, 128.7500
1421.995, 141.3262
1423.044, 10.03320
1424.093, 233.6445
1425.142, 143.7539
1426.191, 117.5605
1427.240, 159.4336
1428.289, 202.3516
1429.337, 107.3379
1430.385, 196.3613
1431.433, 208.4336
1432.481, 339.5762
1433.529, 228.9707
1434.577, 310.2500
1435.624, 320.6035
1436.672, 416.4434
1437.719, 721.5098
1438.766, 723.0664
1439.812, 891.7207
1440.859, 1124.461
1441.905, 1202.078
1442.952, 1288.965
1443.998, 1339.943
1445.044, 1384.004
1446.090, 1360.885
1447.135, 1342.070
1448.181, 1351.918
1449.226, 1560.418
1450.271, 1448.480
1451.316, 1654.684
1452.361, 1501.039
1453.405, 1727.480
1454.450, 1379.979
1455.494, 1621.521
1456.538, 1450.117
1457.582, 1484.758
1458.626, 1428.439
1459.670, 1541.170
1460.713, 1394.947
1461.757, 1131.768
1462.800, 869.6348
1463.843, 911.5527
1464.886, 965.5156
1465.928, 686.5332
1466.971, 751.5977
1468.013, 636.7168
1469.055, 484.8867
1470.097, 352.1113
1471.139, 469.3418
1472.181, 396.6133
1473.222, 281.9160
1474.263, 225.2520
1475.305, 181.6445
1476.346, 299.0645
1477.386, 245.5215
1478.427, 266.6543
1479.468, 223.4551
1480.508, 271.0371
1481.548, 176.6758
1482.588, 182.9043
1483.628, 156.1387
1484.668, 129.1035
1485.707, 86.84961
1486.747, 112.8027
1487.786, 122.8184
1488.825, 123.9023
1489.864, 7.050781
1490.902, 99.73633
1491.941, 85.44922
1492.979, 59.90430
1494.017, 46.33008
1495.055, 18.17188
1496.093, 111.5996
1497.131, 65.04688
1498.168, 194.7695
1499.206, 23.40430
1500.243, 36.24414
1501.280, 77.84570
1502.317, 5.865234
1503.354, 145.8184
1504.390, 1.705078
1505.426, 49.47266
1506.463, 192.7148
1507.499, 22.01953
1508.535, 227.3535
1509.570, 315.7422
1510.606, 136.1855
1511.641, 140.6953
1512.676, 118.2930
1513.711, 218.9883
1514.746, 323.7734
1515.781, 220.6504
1516.816, 216.6270
1517.850, 101.6953
1518.884, 107.7305
1519.918, 348.1289
1520.952, 134.4961
1521.986, 227.9648
1523.019, 309.5371
1524.053, 98.22070
1525.086, 210.0137
1526.119, 387.9258
1527.152, 208.9590
1528.185, 272.1133
1529.217, 262.3945
1530.250, 476.8027
1531.282, 290.3398
1532.314, 324.4590
1533.346, 279.9648
1534.377, 349.3340
1535.409, 14.11328
1536.440, 258.4160
1537.472, 267.7324
1538.503, 152.1152
1539.534, 335.5078
1540.564, 339.1562
1541.595, 340.8320
1542.625, 369.5273
1543.656, 220.2344
1544.686, 267.8418
1545.716, 137.7676
1546.745, 227.2793
1547.775, 69.86719
1548.804, 20.62695
1549.834, 290.7578
1550.863, 490.9785
1551.892, 281.9941
1552.920, 343.9941
1553.949, 539.4824
1554.977, 433.2598
1556.006, 417.4219
1557.034, 10.39648
1558.062, 169.5371
1559.089, 97.86523
1560.117, 205.4395
1561.144, 250.9648
1562.172, 103.9473
1563.199, 277.3125
1564.226, 361.1094
1565.252, 8.835938
1566.279, 305.5000
1567.305, 316.6484
1568.332, 121.2930
1569.358, 150.2715
1570.384, 10.96484
1571.409, 361.5801
1572.435, 0.0000000E+00
##END=



