##NAMES=Edenite
##RRUFFID=R060029
##IDEAL CHEMISTRY=NaCa_2_Mg_5_(Si_7_Al)O_22_(OH)_2_
##LOCALITY=Renfrew County, Ontario, Canada
##OWNER=RRUFF
##SOURCE=University of Arizona Mineral Museum
##DESCRIPTION=Black prismatic
##STATUS=The identification of this mineral has been confirmed by X-ray diffraction and chemical analysis
##URL=rruff.info/R060029
##MEASURED CHEMISTRY=(Na_0.62_K_0.34_[box]_0.04_)(Ca_0.86_Na_0.14_)_2_(Mg_0.57_Fe^2+^_0.30_Fe^3+^_0.07_Al_0.05_Ti_0.01_Mn_0.01_)_5_(Si_6.61_Al_1.39_)O_22_((OH)_0.69_F_0.31_)_2_
##PIN_ID=M00412
##ORIENTATION=Laser parallel to c* (0 0 1). Fiducial mark perpendicular to laser is parallel to a [1 0 0]
129.2090, 0.0000000E+00
130.4390, 831.5703
131.6680, 863.9375
132.8980, 435.6758
134.1270, 45.98242
135.3560, 113.8828
136.5850, 271.4414
137.8140, 1394.832
139.0430, 2622.154
140.2710, 3238.799
141.5000, 2054.150
142.7280, 1569.807
143.9560, 1860.607
145.1840, 2855.607
146.4120, 4638.195
147.6390, 6490.979
148.8670, 8968.436
150.0940, 11879.60
151.3210, 16255.73
152.5490, 18581.24
153.7750, 19476.70
155.0020, 17627.80
156.2290, 14688.26
157.4550, 10827.86
158.6810, 8050.395
159.9080, 5834.715
161.1340, 4458.689
162.3590, 3924.205
163.5850, 4084.668
164.8110, 4347.566
166.0360, 3286.596
167.2610, 3076.594
168.4860, 4780.516
169.7110, 3755.541
170.9360, 4994.297
172.1610, 3728.250
173.3850, 3071.301
174.6100, 3538.488
175.8340, 3735.852
177.0580, 3687.529
178.2820, 3790.416
179.5050, 3822.783
180.7290, 3447.670
181.9520, 3067.855
183.1760, 2521.369
184.3990, 2382.236
185.6220, 2686.471
186.8450, 2276.086
188.0670, 2642.094
189.2900, 1301.043
190.5120, 1481.396
191.7340, 1576.461
192.9560, 1590.840
194.1780, 1281.646
195.4000, 1391.285
196.6220, 1409.664
197.8430, 1432.535
199.0640, 1736.189
200.2860, 1532.266
201.5070, 1744.475
202.7270, 1737.785
203.9480, 1806.307
205.1690, 1706.266
206.3890, 1658.404
207.6090, 1664.299
208.8290, 2177.637
210.0490, 3049.305
211.2690, 4169.320
212.4890, 5174.703
213.7080, 6809.463
214.9280, 7217.605
216.1470, 7753.141
217.3660, 9450.070
218.5850, 10548.40
219.8030, 11854.14
221.0220, 12975.29
222.2400, 13863.88
223.4590, 14990.91
224.6770, 15999.39
225.8950, 17370.34
227.1120, 16891.61
228.3300, 17331.45
229.5480, 17032.23
230.7650, 16571.26
231.9820, 16060.47
233.1990, 15391.16
234.4160, 14235.33
235.6330, 12780.98
236.8490, 11809.07
238.0660, 10391.60
239.2820, 9191.539
240.4980, 8310.887
241.7140, 6882.631
242.9300, 6211.779
244.1460, 5453.320
245.3610, 4464.250
246.5770, 4211.566
247.7920, 3084.271
249.0070, 2831.355
250.2220, 2437.812
251.4370, 2078.643
252.6510, 1353.840
253.8660, 982.4004
255.0800, 900.3164
256.2940, 875.5840
257.5080, 2590.203
258.7220, 2109.107
259.9360, 1524.107
261.1490, 2132.125
262.3630, 217.8945
263.5760, 896.5859
264.7890, 712.9492
266.0020, 634.9922
267.2150, 862.7207
268.4270, 1056.133
269.6400, 689.4277
270.8520, 347.8477
272.0640, 453.4629
273.2760, 488.1621
274.4880, 82.75781
275.7000, 482.6016
276.9120, 714.5371
278.1230, 948.9160
279.3340, 1250.844
280.5450, 1237.723
281.7560, 1671.008
282.9670, 2087.758
284.1780, 2099.275
285.3880, 2532.809
286.5980, 3281.398
287.8090, 2923.898
289.0190, 3619.973
290.2290, 3499.586
291.4380, 3468.705
292.6480, 3396.311
293.8570, 3456.367
295.0670, 3531.852
296.2760, 3399.379
297.4850, 3628.016
298.6930, 3243.662
299.9020, 3117.666
301.1110, 3163.016
302.3190, 2850.699
303.5270, 2379.711
304.7350, 2426.049
305.9430, 2258.754
307.1510, 2091.812
308.3580, 2110.244
309.5660, 1622.129
310.7730, 1526.469
311.9800, 1302.361
313.1870, 1097.877
314.3940, 1063.572
315.6010, 663.0449
316.8070, 934.0605
318.0130, 397.6328
319.2200, 469.7598
320.4260, 480.4023
321.6310, 266.5488
322.8370, 122.8105
324.0430, 36.69922
325.2480, 30.10938
326.4540, 221.1191
327.6590, 18.72852
328.8640, 46.00977
330.0680, 2.931641
331.2730, 125.5703
332.4780, 95.07617
333.6820, 127.9668
334.8860, 157.0781
336.0900, 378.4062
337.2940, 1120.928
338.4980, 1016.730
339.7010, 1572.545
340.9050, 1246.631
342.1080, 989.5547
343.3110, 1087.268
344.5140, 1277.564
345.7170, 1391.779
346.9200, 1436.953
348.1220, 1486.309
349.3240, 1812.861
350.5270, 2077.609
351.7290, 2063.555
352.9310, 2516.693
354.1320, 2422.027
355.3340, 2616.553
356.5350, 2863.268
357.7370, 3088.168
358.9380, 3307.260
360.1390, 3639.531
361.3400, 3363.988
362.5400, 3442.625
363.7410, 3758.436
364.9410, 3773.426
366.1410, 3838.590
367.3410, 4123.922
368.5410, 4257.426
369.7410, 4566.098
370.9400, 4906.932
372.1400, 5251.904
373.3390, 5627.998
374.5380, 5651.244
375.7370, 5931.627
376.9360, 6155.160
378.1350, 5836.842
379.3330, 6029.676
380.5310, 5840.652
381.7300, 6060.773
382.9280, 5371.035
384.1260, 4981.432
385.3230, 4870.969
386.5210, 4157.639
387.7180, 4010.441
388.9160, 3626.375
390.1130, 3280.436
391.3100, 3293.623
392.5060, 2721.934
393.7030, 2510.363
394.9000, 2219.914
396.0960, 2307.582
397.2920, 2030.361
398.4880, 1736.256
399.6840, 1891.264
400.8800, 1722.178
402.0750, 1965.598
403.2710, 1703.926
404.4660, 2103.352
405.6610, 2056.883
406.8560, 2051.467
408.0510, 2062.951
409.2450, 2147.297
410.4400, 2524.969
411.6340, 2705.396
412.8280, 2737.350
414.0220, 2791.367
415.2160, 3451.967
416.4100, 3852.189
417.6030, 4844.381
418.7970, 4477.529
419.9900, 5001.258
421.1830, 5806.137
422.3760, 6104.184
423.5690, 6858.344
424.7610, 7504.678
425.9540, 8110.188
427.1460, 8934.836
428.3380, 9139.619
429.5300, 9342.531
430.7220, 9218.570
431.9140, 9116.732
433.1050, 8800.945
434.2970, 8461.881
435.4880, 7978.924
436.6790, 7526.553
437.8700, 7242.283
439.0610, 6673.123
440.2510, 6393.066
441.4420, 6303.109
442.6320, 5713.252
443.8220, 5567.488
445.0120, 5296.820
446.2020, 5210.496
447.3910, 4404.947
448.5810, 3933.158
449.7700, 4457.271
450.9600, 4465.680
452.1490, 3330.234
453.3370, 2947.246
454.5260, 2631.227
455.7150, 2477.000
456.9030, 2176.455
458.0910, 2000.242
459.2800, 1669.789
460.4670, 1590.234
461.6550, 1364.717
462.8430, 1049.289
464.0300, 1000.824
465.2180, 871.9023
466.4050, 1326.988
467.5920, 1096.928
468.7790, 442.5156
469.9650, 951.9316
471.1520, 908.9434
472.3380, 466.5723
473.5250, 509.9395
474.7110, 782.9609
475.8970, 708.3672
477.0820, 708.4512
478.2680, 1031.496
479.4540, 947.7246
480.6390, 1177.490
481.8240, 1226.258
483.0090, 1360.514
484.1940, 1603.582
485.3780, 1820.613
486.5630, 2046.609
487.7470, 2297.572
488.9320, 2516.502
490.1160, 2934.395
491.3000, 2974.254
492.4830, 3553.072
493.6670, 3878.852
494.8500, 4132.588
496.0340, 4756.285
497.2170, 5111.623
498.4000, 5554.830
499.5820, 6012.096
500.7650, 6497.602
501.9480, 6954.277
503.1300, 7392.461
504.3120, 7943.805
505.4940, 8379.096
506.6760, 8969.326
507.8580, 9330.500
509.0390, 9997.615
510.2210, 10463.66
511.4020, 10643.65
512.5830, 11105.57
513.7640, 11433.42
514.9450, 11922.21
516.1250, 11784.93
517.3060, 12136.56
518.4860, 12214.13
519.6660, 12594.64
520.8460, 12735.05
522.0260, 12756.40
523.2060, 13118.66
524.3850, 13207.13
525.5650, 13326.98
526.7440, 13503.97
527.9230, 13679.91
529.1020, 13677.76
530.2810, 13846.09
531.4590, 13878.44
532.6380, 14065.79
533.8160, 13932.29
534.9940, 14059.69
536.1720, 14036.00
537.3500, 13520.21
538.5270, 13902.33
539.7050, 13606.35
540.8820, 13390.27
542.0590, 13428.09
543.2360, 12723.81
544.4130, 12646.43
545.5900, 12240.95
546.7660, 11861.38
547.9430, 11713.54
549.1190, 11635.02
550.2950, 11222.37
551.4710, 10914.82
552.6470, 10530.33
553.8220, 9975.951
554.9980, 9901.822
556.1730, 9443.809
557.3480, 9226.828
558.5230, 9161.875
559.6980, 8703.023
560.8730, 8546.182
562.0470, 8044.338
563.2220, 7867.500
564.3960, 7606.613
565.5700, 7259.283
566.7440, 7197.799
567.9170, 6725.809
569.0910, 6312.730
570.2640, 6142.570
571.4380, 5973.314
572.6110, 5735.963
573.7840, 5211.504
574.9570, 4881.924
576.1290, 4723.205
577.3020, 4061.348
578.4740, 3867.348
579.6460, 3626.207
580.8180, 3173.918
581.9900, 2732.484
583.1620, 2219.900
584.3330, 1983.168
585.5040, 2114.285
586.6760, 1160.248
587.8470, 1011.051
589.0180, 314.6777
590.1880, 331.0293
591.3590, 211.1055
592.5290, 228.1289
593.7000, 387.8984
594.8700, 524.2871
596.0400, 833.3730
597.2090, 615.3223
598.3790, 886.0234
599.5490, 733.6211
600.7180, 791.0391
601.8870, 787.3086
603.0560, 625.4355
604.2250, 589.3320
605.3940, 546.9844
606.5620, 512.3730
607.7300, 516.4668
608.8990, 236.2812
610.0670, 291.6680
611.2350, 29.64062
612.4020, 83.91406
613.5700, 127.0586
614.7370, 184.8125
615.9050, 526.2031
617.0720, 753.3184
618.2390, 905.1953
619.4060, 1237.854
620.5720, 1344.426
621.7390, 1339.588
622.9050, 1696.674
624.0710, 1844.580
625.2370, 2164.311
626.4030, 2484.867
627.5690, 2598.246
628.7340, 3187.447
629.9000, 3397.475
631.0650, 3632.326
632.2300, 4001.000
633.3950, 4193.500
634.5600, 4544.816
635.7240, 5027.959
636.8890, 5283.928
638.0530, 5827.713
639.2170, 6235.514
640.3810, 6677.877
641.5450, 7185.014
642.7080, 7745.092
643.8720, 8300.988
645.0350, 9091.713
646.1980, 9540.254
647.3610, 10407.62
648.5240, 11177.81
649.6870, 11886.82
650.8490, 12821.65
652.0120, 13512.30
653.1740, 14753.78
654.3360, 15965.07
655.4980, 17362.19
656.6600, 18961.13
657.8210, 20638.43
658.9830, 22687.48
660.1440, 24457.89
661.3050, 26402.13
662.4660, 28578.18
663.6270, 30191.06
664.7870, 32863.76
665.9480, 33722.29
667.1080, 34070.63
668.2680, 34170.80
669.4280, 33927.81
670.5880, 32910.62
671.7480, 31762.27
672.9070, 29847.74
674.0670, 28202.04
675.2260, 25753.16
676.3850, 23540.11
677.5440, 21278.88
678.7030, 19290.48
679.8610, 17505.91
681.0200, 15730.05
682.1780, 14672.24
683.3360, 12791.15
684.4940, 11760.58
685.6520, 10823.32
686.8090, 9625.457
687.9670, 9022.104
689.1240, 8093.535
690.2810, 7486.426
691.4380, 7257.451
692.5950, 6571.947
693.7520, 6406.203
694.9080, 6416.191
696.0650, 6115.096
697.2210, 6018.609
698.3770, 6066.479
699.5330, 5967.641
700.6880, 6158.637
701.8440, 6873.895
702.9990, 6374.873
704.1550, 6540.375
705.3100, 7105.840
706.4650, 6709.062
707.6190, 7493.305
708.7740, 7542.516
709.9290, 7805.494
711.0830, 8290.641
712.2370, 8535.494
713.3910, 8635.500
714.5450, 9053.799
715.6980, 9320.570
716.8520, 9544.152
718.0050, 9810.566
719.1580, 9953.359
720.3110, 10140.77
721.4640, 10210.60
722.6170, 10351.08
723.7700, 10438.47
724.9220, 10508.98
726.0740, 10571.82
727.2260, 10529.79
728.3780, 10534.93
729.5300, 10442.03
730.6810, 10310.76
731.8330, 10223.24
732.9840, 9965.172
734.1350, 9866.031
735.2860, 9527.000
736.4370, 9457.184
737.5880, 9149.932
738.7380, 8568.820
739.8880, 8440.703
741.0390, 7969.449
742.1890, 7486.000
743.3380, 7316.486
744.4880, 7098.316
745.6380, 6836.029
746.7870, 6361.213
747.9360, 5892.725
749.0850, 5674.520
750.2340, 5289.533
751.3830, 5102.168
752.5310, 4667.744
753.6800, 4387.682
754.8280, 4239.207
755.9760, 3962.943
757.1240, 3785.604
758.2720, 3518.971
759.4190, 3533.688
760.5670, 3457.285
761.7140, 3317.281
762.8610, 3328.355
764.0080, 3343.350
765.1550, 3340.266
766.3020, 3369.109
767.4480, 3218.875
768.5950, 3312.070
769.7410, 3265.799
770.8870, 3289.742
772.0330, 3373.223
773.1780, 3121.633
774.3240, 3395.979
775.4690, 3302.268
776.6140, 3545.477
777.7590, 3290.629
778.9040, 3085.723
780.0490, 2997.438
781.1940, 3136.734
782.3380, 2971.654
783.4820, 2996.520
784.6260, 2980.332
785.7700, 2880.094
786.9140, 2778.805
788.0580, 2810.467
789.2010, 2587.080
790.3450, 2571.801
791.4880, 2516.174
792.6310, 2442.656
793.7730, 2090.098
794.9160, 2030.498
796.0590, 2098.859
797.2010, 2189.186
798.3430, 1686.475
799.4850, 1550.730
800.6270, 1642.957
801.7690, 1252.150
802.9100, 1534.312
804.0520, 1222.451
805.1930, 1273.559
806.3340, 1157.645
807.4750, 1078.705
808.6160, 1018.230
809.7560, 899.3203
810.8970, 862.7578
812.0370, 659.7383
813.1770, 648.7031
814.3170, 472.6504
815.4570, 400.5859
816.5960, 538.5059
817.7360, 295.4180
818.8750, 389.3203
820.0140, 80.21289
821.1530, 18.09766
822.2920, 4.425781
823.4310, 54.21680
824.5690, 50.43945
825.7070, 111.6230
826.8460, 403.4414
827.9840, 285.6328
829.1220, 364.3613
830.2590, 750.5938
831.3970, 531.0918
832.5340, 397.5957
833.6710, 345.4062
834.8080, 617.4004
835.9450, 471.2988
837.0820, 493.1035
838.2190, 522.0234
839.3550, 317.7676
840.4910, 543.8145
841.6270, 343.6387
842.7630, 313.8418
843.8990, 206.2500
845.0350, 253.6543
846.1700, 195.4062
847.3060, 207.2129
848.4410, 140.0703
849.5760, 98.57422
850.7100, 1.847656
851.8450, 83.28320
852.9800, 40.98438
854.1140, 353.7734
855.2480, 580.8750
856.3820, 726.9160
857.5160, 548.9727
858.6500, 789.4727
859.7830, 862.2207
860.9170, 928.2539
862.0500, 1227.654
863.1830, 1096.955
864.3160, 1392.760
865.4480, 1518.340
866.5810, 1722.057
867.7130, 1757.070
868.8460, 2001.838
869.9780, 2088.299
871.1100, 2123.086
872.2410, 2544.279
873.3730, 2598.824
874.5050, 2854.799
875.6360, 2707.162
876.7670, 2803.936
877.8980, 2947.701
879.0290, 2980.658
880.1590, 3280.562
881.2900, 3181.818
882.4200, 3456.418
883.5500, 3635.367
884.6800, 4004.590
885.8100, 3997.102
886.9400, 3976.836
888.0690, 4228.768
889.1990, 4324.885
890.3280, 4553.178
891.4570, 4667.600
892.5860, 4983.133
893.7140, 5196.781
894.8430, 5336.535
895.9710, 5388.391
897.1000, 5566.336
898.2280, 5655.764
899.3560, 5741.816
900.4830, 5813.674
901.6110, 5739.656
902.7380, 6040.234
903.8660, 6255.301
904.9930, 6389.238
906.1200, 6199.262
907.2460, 6427.715
908.3730, 6488.799
909.5000, 6543.168
910.6260, 6830.990
911.7520, 6688.781
912.8780, 6973.215
914.0040, 7087.586
915.1290, 7298.996
916.2550, 8464.105
917.3800, 8393.352
918.5050, 7955.797
919.6300, 7981.395
920.7550, 8621.145
921.8800, 8200.023
923.0040, 8382.047
924.1290, 8341.230
925.2530, 8504.555
926.3770, 8855.062
927.5010, 8381.723
928.6250, 8439.531
929.7480, 8745.451
930.8720, 8686.490
931.9950, 8819.732
933.1180, 8991.172
934.2410, 8962.809
935.3640, 9320.340
936.4860, 9294.254
937.6090, 9372.664
938.7310, 9414.809
939.8530, 9489.141
940.9750, 9593.617
942.0970, 9780.281
943.2180, 9987.080
944.3400, 9908.004
945.4610, 10235.11
946.5820, 10498.34
947.7030, 10446.69
948.8240, 10678.15
949.9450, 10745.77
951.0650, 11033.51
952.1860, 10859.39
953.3060, 11304.42
954.4260, 11125.56
955.5460, 11246.86
956.6650, 11358.58
957.7850, 11398.94
958.9040, 11235.84
960.0230, 11580.18
961.1420, 11644.68
962.2610, 11488.68
963.3800, 11656.47
964.4990, 11519.74
965.6170, 11363.19
966.7350, 11502.86
967.8530, 11210.36
968.9710, 11466.60
970.0890, 11264.23
971.2070, 11283.51
972.3240, 11253.90
973.4410, 11049.98
974.5580, 11242.97
975.6750, 11157.28
976.7920, 11389.75
977.9090, 11225.66
979.0250, 11034.50
980.1410, 11082.33
981.2580, 11196.33
982.3740, 11580.12
983.4890, 11378.16
984.6050, 11543.99
985.7200, 11624.49
986.8360, 11497.48
987.9510, 12353.61
989.0660, 12357.88
990.1810, 12557.29
991.2950, 12867.85
992.4100, 13187.55
993.5240, 13276.39
994.6390, 14268.38
995.7530, 14205.19
996.8660, 14555.43
997.9800, 14572.19
999.0940, 14890.75
1000.207, 15123.45
1001.320, 15244.29
1002.433, 15552.27
1003.546, 15725.39
1004.659, 15803.65
1005.772, 16054.04
1006.884, 16046.57
1007.996, 16399.24
1009.108, 16482.04
1010.220, 16333.96
1011.332, 16772.02
1012.444, 16381.22
1013.555, 16627.54
1014.666, 16550.00
1015.777, 16662.57
1016.888, 16834.28
1017.999, 16831.11
1019.110, 16824.69
1020.220, 16447.13
1021.331, 16846.33
1022.441, 16447.62
1023.551, 16794.05
1024.661, 16431.58
1025.770, 16573.22
1026.880, 16505.23
1027.989, 16714.19
1029.098, 16544.62
1030.207, 16596.08
1031.316, 16168.27
1032.425, 16230.64
1033.533, 15906.04
1034.642, 15661.55
1035.750, 15726.11
1036.858, 15272.83
1037.966, 15076.01
1039.073, 14723.94
1040.181, 14513.29
1041.288, 14285.10
1042.396, 13951.39
1043.503, 13793.55
1044.610, 13540.65
1045.716, 13168.00
1046.823, 12823.39
1047.929, 13067.26
1049.036, 12476.11
1050.142, 12295.30
1051.248, 12345.84
1052.353, 11992.99
1053.459, 12053.43
1054.564, 11818.30
1055.670, 11603.19
1056.775, 11508.81
1057.880, 11397.89
1058.985, 11230.61
1060.089, 10941.00
1061.194, 10801.26
1062.298, 10522.68
1063.402, 10295.44
1064.506, 10177.62
1065.610, 9758.166
1066.713, 9894.467
1067.817, 9248.961
1068.920, 9330.928
1070.023, 8972.752
1071.126, 8905.297
1072.229, 8820.473
1073.332, 8203.008
1074.435, 8450.641
1075.537, 8016.895
1076.639, 8485.068
1077.741, 7618.217
1078.843, 7751.762
1079.945, 7586.039
1081.046, 7304.219
1082.148, 7121.297
1083.249, 7026.674
1084.350, 6951.695
1085.451, 6894.072
1086.551, 6723.234
1087.652, 6759.924
1088.752, 6438.457
1089.853, 6361.697
1090.953, 6321.271
1092.053, 6131.328
1093.152, 5949.768
1094.252, 5622.344
1095.351, 5647.850
1096.451, 5520.867
1097.550, 5184.602
1098.649, 5162.514
1099.748, 5145.426
1100.846, 4846.652
1101.945, 4502.338
1103.043, 4601.738
1104.141, 4118.107
1105.239, 3915.500
1106.337, 3775.434
1107.434, 3642.414
1108.532, 3367.316
1109.629, 3308.744
1110.726, 3056.520
1111.823, 2953.211
1112.920, 2815.875
1114.017, 2541.707
1115.113, 2827.320
1116.210, 2637.680
1117.306, 2565.656
1118.402, 2349.373
1119.498, 2173.104
1120.593, 1863.982
1121.689, 1818.818
1122.784, 1742.557
1123.879, 1690.402
1124.974, 1400.297
1126.069, 1388.230
1127.164, 1189.395
1128.259, 1172.639
1129.353, 1037.980
1130.447, 913.7949
1131.541, 917.3242
1132.635, 719.0527
1133.729, 444.5215
1134.822, 598.6309
1135.916, 666.6426
1137.009, 653.8848
1138.102, 316.5645
1139.195, 398.2129
1140.288, 312.0332
1141.380, 219.2910
1142.473, 551.8242
1143.565, 188.7988
1144.657, 257.6699
1145.749, 233.8145
1146.841, 173.3301
1147.932, 279.6035
1149.024, 142.3750
1150.115, 209.0586
1151.206, 332.0859
1152.297, 169.2578
1153.388, 182.6582
1154.479, 179.6152
1155.569, 89.97852
1156.659, 64.53711
1157.750, 113.3672
1158.839, 80.73047
1159.929, 71.51562
1161.019, 20.29492
1162.108, 29.57812
1163.198, 7.562500
1164.287, 58.58984
1165.376, 44.30859
1166.465, 132.5820
1167.553, 110.3457
1168.642, 8.740234
1169.730, 47.64258
1170.818, 152.3203
1171.906, 440.1348
1172.994, 234.2559
1174.082, 114.6855
1175.170, 75.70898
1176.257, 360.5293
1177.344, 227.6777
1178.431, 261.3262
1179.518, 303.1367
1180.605, 111.7598
1181.691, 350.8262
1182.778, 163.9902
1183.864, 147.4297
1184.950, 53.45703
1186.036, 128.3945
1187.122, 151.0977
1188.207, 105.4883
1189.292, 238.2676
1190.378, 116.5215
1191.463, 113.6250
1192.548, 65.99805
1193.632, 7.585938
1194.717, 286.0176
1195.801, 271.4531
1196.886, 247.4355
1197.970, 55.08984
1199.054, 26.73828
1200.137, 131.9141
1201.221, 3.855469
1202.305, 112.6582
1203.388, 51.96875
1204.471, 177.2070
1205.554, 7.781250
1206.637, 49.64062
1207.719, 158.7031
1208.802, 50.87109
1209.884, 174.6582
1210.966, 217.2227
1212.048, 64.31250
1213.130, 72.89258
1214.212, 41.88281
1215.293, 4.416016
1216.374, 199.9434
1217.456, 34.76953
1218.536, 158.8262
1219.617, 180.5625
1220.698, 283.1250
1221.778, 215.6738
1222.859, 198.3281
1223.939, 349.8906
1225.019, 407.5273
1226.099, 318.1328
1227.178, 422.1855
1228.258, 180.8750
1229.337, 260.1562
1230.417, 246.4043
1231.496, 372.8672
1232.574, 268.8770
1233.653, 298.6543
1234.732, 334.4688
1235.810, 273.4102
1236.888, 284.4746
1237.966, 324.2734
1239.044, 464.8691
1240.122, 463.0371
1241.199, 391.6055
1242.277, 475.8223
1243.354, 452.6973
1244.431, 309.3086
1245.508, 497.5000
1246.585, 253.6035
1247.661, 319.3164
1248.738, 497.9766
1249.814, 659.1445
1250.890, 520.8340
1251.966, 607.9121
1253.042, 532.3809
1254.117, 525.2109
1255.193, 520.1758
1256.268, 469.2852
1257.343, 452.7930
1258.418, 433.3145
1259.493, 430.0449
1260.567, 526.0312
1261.642, 624.2637
1262.716, 534.4902
1263.790, 456.2227
1264.864, 540.5918
1265.938, 473.4492
1267.011, 656.3438
1268.085, 474.5410
1269.158, 515.1152
1270.231, 451.5820
1271.304, 306.0332
1272.377, 543.1973
1273.450, 223.2480
1274.522, 498.3047
1275.594, 421.2930
1276.666, 291.1348
1277.738, 389.6699
1278.810, 399.2637
1279.882, 368.5586
1280.953, 356.7305
1282.025, 429.7773
1283.096, 512.7012
1284.167, 649.5137
1285.238, 331.2129
1286.308, 462.7832
1287.379, 319.9746
1288.449, 640.2266
1289.519, 483.6191
1290.589, 601.7129
1291.659, 670.6973
1292.729, 646.5059
1293.798, 472.2695
1294.868, 609.9180
1295.937, 420.5137
1297.006, 617.9297
1298.075, 493.8789
1299.143, 567.0742
1300.212, 681.8301
1301.280, 541.1348
1302.348, 805.9160
1303.416, 474.8320
1304.484, 403.7969
1305.552, 489.4922
1306.620, 284.1406
1307.687, 393.7695
1308.754, 380.4395
1309.821, 409.2363
1310.888, 458.2070
1311.955, 415.5879
1313.021, 488.5820
1314.088, 520.0449
1315.154, 427.0742
1316.220, 324.3477
1317.286, 320.1543
1318.352, 197.2988
1319.417, 279.7617
1320.483, 296.0918
1321.548, 285.4355
1322.613, 303.8301
1323.678, 430.5820
1324.743, 493.6719
1325.807, 497.1484
1326.872, 269.3906
1327.936, 356.9434
1329.000, 311.8574
1330.064, 269.8652
1331.128, 407.2969
1332.191, 213.7246
1333.255, 331.8789
1334.318, 333.7051
1335.381, 395.9961
1336.444, 318.7188
1337.507, 293.0918
1338.569, 397.2676
1339.632, 302.8184
1340.694, 167.0000
1341.756, 263.8477
1342.818, 130.0098
1343.880, 191.7754
1344.941, 191.2637
1346.003, 1.892578
1347.064, 72.60156
1348.125, 26.64258
1349.186, 7.861328
1350.247, 86.65430
1351.308, 52.15430
1352.368, 120.4961
1353.428, 141.9824
1354.489, 52.99414
1355.549, 101.3379
1356.608, 105.6543
1357.668, 187.0566
1358.727, 68.19531
1359.787, 60.89258
1360.846, 82.98828
1361.905, 57.18750
1362.964, 114.4395
1364.022, 58.23438
1365.081, 212.0098
1366.139, 233.9473
1367.197, 107.3887
1368.255, 152.7344
1369.313, 31.69531
1370.371, 62.91797
1371.428, 107.9629
1372.486, 161.8926
1373.543, 165.1074
1374.600, 294.5293
1375.657, 210.5723
1376.713, 62.40039
1377.770, 150.3281
1378.826, 54.09570
1379.882, 23.09375
1380.938, 252.5547
1381.994, 231.0957
1383.050, 151.5469
1384.106, 152.7070
1385.161, 110.9082
1386.216, 156.5977
1387.271, 66.37891
1388.326, 3.494141
1389.381, 3.207031
1390.435, 42.79883
1391.490, 17.59570
1392.544, 196.2891
1393.598, 11.16992
1394.652, 54.85938
1395.705, 68.72852
1396.759, 170.7578
1397.812, 144.9219
1398.866, 206.5078
1399.919, 180.3984
1400.972, 135.5430
1402.024, 126.5293
1403.077, 121.8164
1404.129, 210.0977
1405.181, 118.4043
1406.233, 214.7344
1407.285, 188.6602
1408.337, 286.3750
1409.389, 156.7930
1410.440, 212.5918
1411.491, 299.9199
1412.542, 276.9844
1413.593, 295.1211
1414.644, 191.2852
1415.695, 269.4688
1416.745, 184.9805
1417.795, 200.9434
1418.845, 229.6328
1419.895, 124.2500
1420.945, 257.5879
1421.995, 194.0215
1423.044, 353.3008
1424.093, 449.2422
1425.142, 483.8145
1426.191, 275.6738
1427.240, 381.7793
1428.289, 361.8184
1429.337, 337.1543
1430.385, 486.9746
1431.433, 313.8789
1432.481, 461.1953
1433.529, 479.5371
1434.577, 549.8828
1435.624, 412.8164
1436.672, 382.9453
1437.719, 377.8691
1438.766, 496.3398
1439.812, 331.5156
1440.859, 570.0996
1441.905, 562.1172
1442.952, 327.1250
1443.998, 470.6250
1445.044, 448.6699
1446.090, 490.7617
1447.135, 497.2031
1448.181, 362.0586
1449.226, 417.1953
1450.271, 517.1875
1451.316, 295.7852
1452.361, 488.4258
1453.405, 569.0488
1454.450, 387.3887
1455.494, 438.7988
1456.538, 384.2168
1457.582, 463.1094
1458.626, 523.8027
1459.670, 386.5605
1460.713, 549.5605
1461.757, 482.7812
1462.800, 441.2227
1463.843, 409.4668
1464.886, 602.3047
1465.928, 710.1895
1466.971, 736.0996
1468.013, 438.0078
1469.055, 558.4590
1470.097, 512.6230
1471.139, 458.9531
1472.181, 637.7188
1473.222, 387.3398
1474.263, 564.0586
1475.305, 569.9375
1476.346, 653.3438
1477.386, 566.4746
1478.427, 534.1348
1479.468, 670.0039
1480.508, 712.2188
1481.548, 605.9316
1482.588, 692.5312
1483.628, 435.3379
1484.668, 475.9141
1485.707, 653.2480
1486.747, 557.9453
1487.786, 649.8984
1488.825, 670.5840
1489.864, 366.4668
1490.902, 627.6016
1491.941, 507.7637
1492.979, 393.8203
1494.017, 445.5938
1495.055, 418.4004
1496.093, 363.2207
1497.131, 383.0625
1498.168, 447.9375
1499.206, 447.2402
1500.243, 533.7715
1501.280, 504.7227
1502.317, 594.7031
1503.354, 586.5000
1504.390, 503.7656
1505.426, 510.8223
1506.463, 470.8828
1507.499, 477.9219
1508.535, 512.9570
1509.570, 497.9902
1510.606, 361.0410
1511.641, 453.1230
1512.676, 371.5137
1513.711, 360.6680
1514.746, 380.3613
1515.781, 396.4180
1516.816, 554.5020
1517.850, 714.1387
1518.884, 689.6816
1519.918, 643.4727
1520.952, 630.8711
1521.986, 455.3320
1523.019, 283.8691
1524.053, 383.4453
1525.086, 387.1152
1526.119, 342.8633
1527.152, 440.7148
1528.185, 412.7363
1529.217, 430.0059
1530.250, 327.3594
1531.282, 249.8008
1532.314, 154.6875
1533.346, 340.4316
1534.377, 440.5469
1535.409, 459.6523
1536.440, 154.8398
1537.472, 268.5117
1538.503, 214.6172
1539.534, 153.9492
1540.564, 326.8516
1541.595, 69.72656
1542.625, 239.2051
1543.656, 238.6016
1544.686, 316.0840
1545.716, 225.0508
1546.745, 186.3242
1547.775, 316.5781
1548.804, 353.6113
1549.834, 244.0234
1550.863, 327.7891
1551.892, 66.82227
1552.920, 108.8574
1553.949, 281.7910
1554.977, 182.0996
1556.006, 270.4629
1557.034, 287.7422
1558.062, 19.37500
1559.089, 238.9551
1560.117, 253.5137
1561.144, 17.81836
1562.172, 258.6465
1563.199, 59.03906
1564.226, 17.85742
1565.252, 83.38281
1566.279, 37.20312
1567.305, 176.0977
1568.332, 105.5156
1569.358, 1.648438
1570.384, 153.9531
1571.409, 0.0000000E+00
##END=



