##NAMES=Elbaite
##RRUFFID=R060560
##IDEAL CHEMISTRY=Na(Al_1.5_Li_1.5_)Al_6_(Si_6_O_18_)(BO_3_)_3_(OH)_3_OH
##LOCALITY=California, USA
##OWNER=RRUFF
##SOURCE=Gemological Institute of America
##DESCRIPTION=Pink fragment
##STATUS=The identification of this mineral has been confirmed by X-ray diffraction and chemical analysis
##URL=rruff.info/R060560
##MEASURED CHEMISTRY=(Na_0.56_Ca_0.12_[box]_0.32_)(Al_1.60_Li_1.40_)Al_6_(BO_3_)_3_[Si_6_O_18_](OH)_4_
##PIN_ID=L01306
##ORIENTATION=Laser parallel to c* (0 0 1). Fiducial mark perpendicular to laser is parallel to a [1 0 0]
118.1340, 0.0000000E+00
119.3650, 5.263672
120.5960, 236.6973
121.8270, 320.2109
123.0580, 619.4844
124.2880, 929.6045
125.5190, 922.7295
126.7490, 1225.061
127.9790, 1404.669
129.2090, 1730.537
130.4390, 1930.534
131.6680, 2119.621
132.8980, 2242.512
134.1270, 2225.689
135.3560, 2261.521
136.5850, 2116.796
137.8140, 1962.075
139.0430, 2000.845
140.2710, 1864.398
141.5000, 1529.637
142.7280, 1644.264
143.9560, 1757.244
145.1840, 1658.243
146.4120, 1909.468
147.6390, 1702.828
148.8670, 1819.449
150.0940, 2225.513
151.3210, 2110.881
152.5490, 1959.243
153.7750, 1613.317
155.0020, 1467.097
156.2290, 1311.561
157.4550, 782.6885
158.6810, 551.4580
159.9080, 282.8496
161.1340, 283.8398
162.3590, 210.4062
163.5850, 77.14355
164.8110, 78.58691
166.0360, 84.20020
167.2610, 235.5781
168.4860, 37.58105
169.7110, 160.2295
170.9360, 26.53027
172.1610, 95.47754
173.3850, 168.0703
174.6100, 190.3027
175.8340, 158.8359
177.0580, 11.65430
178.2820, 171.2344
179.5050, 215.5068
180.7290, 17.83203
181.9520, 8.780273
183.1760, 10.33008
184.3990, 242.5186
185.6220, 65.77051
186.8450, 369.4287
188.0670, 727.4951
189.2900, 751.0820
190.5120, 938.8633
191.7340, 1087.143
192.9560, 1417.723
194.1780, 1597.619
195.4000, 1899.823
196.6220, 2058.326
197.8430, 2328.120
199.0640, 2371.186
200.2860, 2636.513
201.5070, 2849.087
202.7270, 3209.904
203.9480, 3097.947
205.1690, 3242.184
206.3890, 3369.596
207.6090, 3878.418
208.8290, 4332.509
210.0490, 4822.552
211.2690, 5721.795
212.4890, 6345.655
213.7080, 7177.734
214.9280, 8316.858
216.1470, 9556.934
217.3660, 11007.95
218.5850, 12519.02
219.8030, 14380.06
221.0220, 16152.28
222.2400, 17395.76
223.4590, 18423.50
224.6770, 18698.51
225.8950, 18232.79
227.1120, 17050.38
228.3300, 16039.25
229.5480, 14708.43
230.7650, 13483.91
231.9820, 12583.70
233.1990, 11644.80
234.4160, 10993.21
235.6330, 10582.94
236.8490, 10581.98
238.0660, 10184.33
239.2820, 10081.99
240.4980, 10166.96
241.7140, 10057.24
242.9300, 9936.824
244.1460, 9755.724
245.3610, 9425.550
246.5770, 9011.227
247.7920, 8590.277
249.0070, 7882.414
250.2220, 7287.861
251.4370, 6523.618
252.6510, 5967.685
253.8660, 5170.061
255.0800, 4518.744
256.2940, 4245.736
257.5080, 3877.035
258.7220, 3463.881
259.9360, 3149.502
261.1490, 2899.771
262.3630, 2511.292
263.5760, 2474.117
264.7890, 2336.689
266.0020, 2226.001
267.2150, 2370.008
268.4270, 2541.234
269.6400, 2575.607
270.8520, 2753.090
272.0640, 2810.631
273.2760, 2956.206
274.4880, 3111.814
275.7000, 3136.471
276.9120, 3209.110
278.1230, 3203.786
279.3340, 3058.158
280.5450, 3092.604
281.7560, 2877.054
282.9670, 2718.541
284.1780, 2572.094
285.3880, 2473.732
286.5980, 2429.465
287.8090, 1980.921
289.0190, 1721.762
290.2290, 1656.299
291.4380, 1133.735
292.6480, 700.8516
293.8570, 443.1797
295.0670, 111.7695
296.2760, 210.4395
297.4850, 206.4199
298.6930, 356.1562
299.9020, 413.6660
301.1110, 297.9551
302.3190, 190.0156
303.5270, 3.161133
304.7350, 269.5820
305.9430, 746.2041
307.1510, 1043.110
308.3580, 1321.952
309.5660, 1655.551
310.7730, 1789.453
311.9800, 2065.541
313.1870, 2158.179
314.3940, 2198.680
315.6010, 2630.834
316.8070, 2608.648
318.0130, 2819.254
319.2200, 2971.428
320.4260, 3372.117
321.6310, 3598.785
322.8370, 4098.814
324.0430, 4624.930
325.2480, 5173.277
326.4540, 5858.602
327.6590, 6430.711
328.8640, 6511.172
330.0680, 6761.467
331.2730, 6759.018
332.4780, 6642.844
333.6820, 6620.953
334.8860, 6459.350
336.0900, 5846.045
337.2940, 5790.029
338.4980, 5412.301
339.7010, 5501.887
340.9050, 5019.744
342.1080, 4778.883
343.3110, 4680.314
344.5140, 4490.748
345.7170, 4641.930
346.9200, 4459.104
348.1220, 4693.545
349.3240, 4848.240
350.5270, 5043.164
351.7290, 5220.316
352.9310, 5264.672
354.1320, 5859.172
355.3340, 6190.793
356.5350, 6381.605
357.7370, 7046.625
358.9380, 7867.852
360.1390, 8665.289
361.3400, 9754.934
362.5400, 10641.79
363.7410, 11792.86
364.9410, 13233.13
366.1410, 14647.62
367.3410, 16038.32
368.5410, 17774.23
369.7410, 19438.34
370.9400, 21109.67
372.1400, 23322.21
373.3390, 25114.95
374.5380, 27101.90
375.7370, 28574.06
376.9360, 29397.43
378.1350, 29578.00
379.3330, 28931.79
380.5310, 27784.79
381.7300, 25571.98
382.9280, 23165.37
384.1260, 20746.97
385.3230, 18252.76
386.5210, 16052.75
387.7180, 14243.94
388.9160, 12838.32
390.1130, 11421.90
391.3100, 10527.67
392.5060, 10032.64
393.7030, 9510.797
394.9000, 9188.146
396.0960, 8936.688
397.2920, 8806.420
398.4880, 8887.340
399.6840, 9491.451
400.8800, 9510.752
402.0750, 9870.238
403.2710, 10162.91
404.4660, 10322.78
405.6610, 10531.83
406.8560, 10884.12
408.0510, 10516.66
409.2450, 10722.50
410.4400, 10562.58
411.6340, 9999.969
412.8280, 9636.664
414.0220, 8582.582
415.2160, 8002.705
416.4100, 7101.035
417.6030, 6104.561
418.7970, 5071.283
419.9900, 4279.199
421.1830, 3278.318
422.3760, 2565.633
423.5690, 1955.143
424.7610, 1425.854
425.9540, 1035.764
427.1460, 644.8750
428.3380, 479.1836
429.5300, 243.6914
430.7220, 154.4004
431.9140, 167.3086
433.1050, 301.4219
434.2970, 336.7402
435.4880, 403.2656
436.6790, 502.9980
437.8700, 774.9375
439.0610, 731.0840
440.2510, 972.8320
441.4420, 1087.863
442.6320, 1445.811
443.8220, 1694.549
445.0120, 1683.371
446.2020, 2023.535
447.3910, 2031.037
448.5810, 2266.807
449.7700, 2085.777
450.9600, 2148.943
452.1490, 2110.311
453.3370, 2104.926
454.5260, 1997.750
455.7150, 2023.816
456.9030, 1892.162
458.0910, 1782.729
459.2800, 1755.018
460.4670, 1612.590
461.6550, 1608.840
462.8430, 1448.344
464.0300, 1306.090
465.2180, 1336.023
466.4050, 1380.154
467.5920, 1369.131
468.7790, 1375.021
469.9650, 1340.330
471.1520, 1319.883
472.3380, 1301.121
473.5250, 1292.793
474.7110, 1246.271
475.8970, 1223.471
477.0820, 1163.473
478.2680, 1263.066
479.4540, 1312.180
480.6390, 1002.500
481.8240, 1204.279
483.0090, 1224.459
484.1940, 1186.918
485.3780, 1295.537
486.5630, 1217.154
487.7470, 1273.715
488.9320, 1144.508
490.1160, 1368.727
491.3000, 1335.074
492.4830, 1314.436
493.6670, 1419.828
494.8500, 1633.117
496.0340, 1464.404
497.2170, 1818.838
498.4000, 1815.418
499.5820, 2037.139
500.7650, 2224.004
501.9480, 2415.010
503.1300, 2818.156
504.3120, 3085.451
505.4940, 3367.881
506.6760, 3595.469
507.8580, 3888.904
509.0390, 4197.111
510.2210, 4489.154
511.4020, 4641.344
512.5830, 5018.672
513.7640, 5245.148
514.9450, 5726.754
516.1250, 5650.492
517.3060, 5930.113
518.4860, 6064.414
519.6660, 6098.039
520.8460, 6131.350
522.0260, 5833.719
523.2060, 5451.209
524.3850, 5521.818
525.5650, 5394.549
526.7440, 5177.396
527.9230, 5242.359
529.1020, 5465.439
530.2810, 5551.633
531.4590, 6006.941
532.6380, 6046.371
533.8160, 6545.918
534.9940, 7416.654
536.1720, 7705.523
537.3500, 8216.557
538.5270, 8710.807
539.7050, 8968.258
540.8820, 9164.930
542.0590, 9167.812
543.2360, 9171.891
544.4130, 9230.145
545.5900, 9104.609
546.7660, 9098.430
547.9430, 9111.754
549.1190, 9019.711
550.2950, 9147.559
551.4710, 9006.643
552.6470, 8987.398
553.8220, 8883.027
554.9980, 8705.988
556.1730, 8462.234
557.3480, 8032.490
558.5230, 7853.592
559.6980, 7585.121
560.8730, 7331.684
562.0470, 7086.887
563.2220, 6823.184
564.3960, 6430.555
565.5700, 5880.006
566.7440, 5486.535
567.9170, 4951.141
569.0910, 4659.826
570.2640, 4233.596
571.4380, 3778.443
572.6110, 3424.363
573.7840, 3142.355
574.9570, 3059.414
576.1290, 2600.537
577.3020, 2527.727
578.4740, 2287.977
579.6460, 2147.283
580.8180, 1952.645
581.9900, 1853.074
583.1620, 1701.564
584.3330, 1635.512
585.5040, 1446.777
586.6760, 1538.490
587.8470, 1393.258
589.0180, 1340.070
590.1880, 1158.922
591.3590, 1180.814
592.5290, 977.7461
593.7000, 886.7148
594.8700, 687.7188
596.0400, 739.7559
597.2090, 603.8242
598.3790, 490.9258
599.5490, 527.0566
600.7180, 532.2129
601.8870, 414.3965
603.0560, 327.6035
604.2250, 227.8340
605.3940, 156.0859
606.5620, 126.3574
607.7300, 4.351563
608.8990, 46.94336
610.0670, 10.74414
611.2350, 226.4336
612.4020, 5.791992
613.5700, 185.9814
614.7370, 242.8311
615.9050, 308.7803
617.0720, 297.8633
618.2390, 375.0791
619.4060, 322.4648
620.5720, 300.9990
621.7390, 449.6748
622.9050, 229.5645
624.0710, 283.5684
625.2370, 353.7158
626.4030, 180.0391
627.5690, 52.46484
628.7340, 151.9385
629.9000, 211.5049
631.0650, 171.1934
632.2300, 25.98730
633.3950, 41.82520
634.5600, 13.71191
635.7240, 155.3672
636.8890, 152.4521
638.0530, 137.5361
639.2170, 469.6074
640.3810, 190.6797
641.5450, 528.7373
642.7080, 447.7979
643.8720, 492.2070
645.0350, 552.2109
646.1980, 655.0156
647.3610, 478.1084
648.5240, 555.3887
649.6870, 426.5430
650.8490, 469.6465
652.0120, 362.3926
653.1740, 395.5889
654.3360, 147.4336
655.4980, 313.6348
656.6600, 98.95801
657.8210, 123.8037
658.9830, 116.4404
660.1440, 67.03223
661.3050, 242.5635
662.4660, 408.0557
663.6270, 364.5078
664.7870, 384.9199
665.9480, 633.2900
667.1080, 493.6172
668.2680, 635.9004
669.4280, 647.1387
670.5880, 925.3311
671.7480, 846.0166
672.9070, 912.1719
674.0670, 1164.928
675.2260, 1138.545
676.3850, 800.3486
677.5440, 1032.625
678.7030, 886.5703
679.8610, 982.5371
681.0200, 756.9561
682.1780, 700.4492
683.3360, 433.3330
684.4940, 379.6797
685.6520, 268.6797
686.8090, 71.54395
687.9670, 68.81738
689.1240, 117.4854
690.2810, 28.41016
691.4380, 151.8633
692.5950, 177.1650
693.7520, 152.8145
694.9080, 313.6572
696.0650, 327.7646
697.2210, 424.0166
698.3770, 690.9404
699.5330, 794.1973
700.6880, 1109.570
701.8440, 1167.585
702.9990, 1432.681
704.1550, 1939.610
705.3100, 1919.669
706.4650, 2484.365
707.6190, 2916.455
708.7740, 3465.172
709.9290, 4012.207
711.0830, 4719.463
712.2370, 5256.808
713.3910, 6119.377
714.5450, 7122.021
715.6980, 8155.122
716.8520, 9644.259
718.0050, 11020.94
719.1580, 12838.51
720.3110, 14981.68
721.4640, 17530.33
722.6170, 20719.87
723.7700, 23892.30
724.9220, 28047.63
726.0740, 32076.87
727.2260, 36741.00
728.3780, 40414.01
729.5300, 44448.93
730.6810, 46987.75
731.8330, 48373.44
732.9840, 47711.04
734.1350, 45996.53
735.2860, 43040.92
736.4370, 39260.19
737.5880, 34979.35
738.7380, 30511.40
739.8880, 26752.35
741.0390, 23391.18
742.1890, 20139.91
743.3380, 18080.52
744.4880, 16012.03
745.6380, 14009.42
746.7870, 12622.03
747.9360, 11186.20
749.0850, 10267.25
750.2340, 9207.509
751.3830, 8312.750
752.5310, 7540.443
753.6800, 7232.984
754.8280, 6435.871
755.9760, 6175.018
757.1240, 5983.633
758.2720, 5454.789
759.4190, 5239.796
760.5670, 4964.403
761.7140, 4552.664
762.8610, 4106.703
764.0080, 3969.633
765.1550, 3615.620
766.3020, 3309.994
767.4480, 2920.973
768.5950, 2574.748
769.7410, 2178.781
770.8870, 1948.158
772.0330, 1651.713
773.1780, 1460.336
774.3240, 1202.993
775.4690, 1005.081
776.6140, 845.5293
777.7590, 662.4170
778.9040, 668.4238
780.0490, 492.3086
781.1940, 330.9336
782.3380, 518.1221
783.4820, 194.2275
784.6260, 143.9424
785.7700, 218.5059
786.9140, 223.9365
788.0580, 282.2324
789.2010, 303.4043
790.3450, 219.4551
791.4880, 526.3721
792.6310, 446.1826
793.7730, 429.8857
794.9160, 367.7227
796.0590, 559.8984
797.2010, 563.7695
798.3430, 594.9814
799.4850, 707.1504
800.6270, 709.2168
801.7690, 847.1807
802.9100, 701.0430
804.0520, 842.8018
805.1930, 742.4590
806.3340, 582.0156
807.4750, 585.4688
808.6160, 268.8203
809.7560, 396.0488
810.8970, 113.8350
812.0370, 116.0254
813.1770, 38.26465
814.3170, 238.7715
815.4570, 187.5977
816.5960, 253.7168
817.7360, 247.1621
818.8750, 186.9287
820.0140, 99.98633
821.1530, 253.2861
822.2920, 138.9082
823.4310, 139.9668
824.5690, 31.61133
825.7070, 197.9443
826.8460, 76.73438
827.9840, 19.84375
829.1220, 123.8555
830.2590, 7.662109
831.3970, 27.89746
832.5340, 67.78809
833.6710, 211.2549
834.8080, 85.50684
835.9450, 191.7285
837.0820, 172.8457
838.2190, 58.85938
839.3550, 281.7539
840.4910, 178.5518
841.6270, 158.2500
842.7630, 176.8447
843.8990, 68.33887
845.0350, 27.71973
846.1700, 53.98145
847.3060, 170.1299
848.4410, 77.18066
849.5760, 221.1221
850.7100, 197.9717
851.8450, 138.7275
852.9800, 229.3857
854.1140, 276.9521
855.2480, 276.4336
856.3820, 343.8301
857.5160, 529.1436
858.6500, 554.3789
859.7830, 613.5371
860.9170, 625.6191
862.0500, 617.6240
863.1830, 591.5527
864.3160, 864.4062
865.4480, 730.1846
866.5810, 881.8896
867.7130, 869.5195
868.8460, 923.0762
869.9780, 1028.562
871.1100, 993.9727
872.2410, 1012.314
873.3730, 1196.583
874.5050, 1112.783
875.6360, 1238.911
876.7670, 1382.971
877.8980, 1465.961
879.0290, 1553.883
880.1590, 1309.737
881.2900, 1364.523
882.4200, 1266.244
883.5500, 1272.903
884.6800, 1234.496
885.8100, 1206.032
886.9400, 1073.553
888.0690, 1043.016
889.1990, 899.4570
890.3280, 922.8916
891.4570, 1016.333
892.5860, 979.7822
893.7140, 920.2578
894.8430, 878.4199
895.9710, 700.2529
897.1000, 664.8037
898.2280, 533.3633
899.3560, 369.9336
900.4830, 331.5361
901.6110, 259.1357
902.7380, 306.7002
903.8660, 262.2588
904.9930, 178.8193
906.1200, 101.4209
907.2460, 30.00098
908.3730, 54.45215
909.5000, 96.96777
910.6260, 50.57227
911.7520, 70.76855
912.8780, 85.93848
914.0040, 106.2734
915.1290, 122.4668
916.2550, 156.6191
917.3800, 229.3564
918.5050, 221.4814
919.6300, 297.7363
920.7550, 333.3281
921.8800, 382.8975
923.0040, 467.0957
924.1290, 485.8496
925.2530, 628.8975
926.3770, 643.4248
927.5010, 856.2295
928.6250, 983.6162
929.7480, 973.8086
930.8720, 1267.397
931.9950, 1420.132
933.1180, 1383.847
934.2410, 1630.551
935.3640, 1690.240
936.4860, 1694.891
937.6090, 1937.506
938.7310, 2128.158
939.8530, 2094.781
940.9750, 2133.401
942.0970, 2227.015
943.2180, 2410.619
944.3400, 2432.698
945.4610, 2584.226
946.5820, 2566.100
947.7030, 2694.043
948.8240, 2762.720
949.9450, 2558.839
951.0650, 2585.231
952.1860, 2547.517
953.3060, 2635.293
954.4260, 2603.912
955.5460, 2494.059
956.6650, 2592.652
957.7850, 2549.953
958.9040, 2622.681
960.0230, 2561.614
961.1420, 2787.857
962.2610, 2750.356
963.3800, 2803.879
964.4990, 2806.238
965.6170, 2926.119
966.7350, 2923.061
967.8530, 3115.637
968.9710, 3049.973
970.0890, 3125.541
971.2070, 3458.686
972.3240, 3541.621
973.4410, 3669.822
974.5580, 3817.848
975.6750, 4012.945
976.7920, 4081.141
977.9090, 4058.963
979.0250, 4248.639
980.1410, 4234.592
981.2580, 4320.412
982.3740, 4182.357
983.4890, 4264.393
984.6050, 4299.107
985.7200, 4195.654
986.8360, 4422.652
987.9510, 3988.520
989.0660, 4071.764
990.1810, 3968.018
991.2950, 4180.564
992.4100, 3904.551
993.5240, 3820.539
994.6390, 3738.531
995.7530, 3710.527
996.8660, 3673.523
997.9800, 3749.523
999.0940, 3655.533
1000.207, 3706.541
1001.320, 3706.555
1002.433, 3668.574
1003.546, 3823.594
1004.659, 3870.623
1005.772, 3792.656
1006.884, 3661.693
1007.996, 4035.734
1009.108, 3987.783
1010.220, 4063.838
1011.332, 4174.898
1012.444, 4379.967
1013.555, 4603.041
1014.666, 4760.121
1015.777, 4884.211
1016.888, 5151.559
1017.999, 5364.410
1019.110, 5676.523
1020.220, 5897.645
1021.331, 6223.770
1022.441, 6580.908
1023.551, 6606.051
1024.661, 7120.203
1025.770, 7128.365
1026.880, 7543.535
1027.989, 7630.713
1029.098, 7964.895
1030.207, 8009.088
1031.316, 8456.105
1032.425, 8644.311
1033.533, 8483.773
1034.642, 8726.273
1035.750, 8689.590
1036.858, 8961.311
1037.966, 9005.438
1039.073, 9264.338
1040.181, 9599.086
1041.288, 9872.920
1042.396, 10193.51
1043.503, 10572.19
1044.610, 10943.92
1045.716, 11394.36
1046.823, 11872.90
1047.929, 12357.39
1049.036, 12844.87
1050.142, 13523.09
1051.248, 14019.28
1052.353, 14835.53
1053.459, 15455.60
1054.564, 16251.87
1055.670, 17195.34
1056.775, 18385.34
1057.880, 19519.61
1058.985, 20628.73
1060.089, 21807.64
1061.194, 23578.27
1062.298, 24994.11
1063.402, 26202.14
1064.506, 27845.17
1065.610, 28764.65
1066.713, 29805.88
1067.817, 30609.82
1068.920, 30489.54
1070.023, 30585.78
1071.126, 29762.77
1072.229, 29318.09
1073.332, 27685.26
1074.435, 26153.66
1075.537, 24885.14
1076.639, 22802.19
1077.741, 21139.38
1078.843, 19278.80
1079.945, 17918.78
1081.046, 16346.20
1082.148, 14470.06
1083.249, 13291.76
1084.350, 12130.13
1085.451, 10711.58
1086.551, 9846.113
1087.652, 8657.523
1088.752, 7813.275
1089.853, 7161.736
1090.953, 6343.604
1092.053, 5953.383
1093.152, 5278.303
1094.252, 4678.221
1095.351, 4548.057
1096.451, 4114.391
1097.550, 4019.809
1098.649, 3405.393
1099.748, 3630.529
1100.846, 3222.664
1101.945, 3332.133
1103.043, 3055.238
1104.141, 2862.434
1105.239, 2784.717
1106.337, 2705.613
1107.434, 2488.963
1108.532, 2458.859
1109.629, 2216.969
1110.726, 2209.285
1111.823, 2117.234
1112.920, 2045.293
1114.017, 2001.164
1115.113, 1819.703
1116.210, 1888.002
1117.306, 1878.455
1118.402, 1827.773
1119.498, 1677.693
1120.593, 1736.953
1121.689, 1398.971
1122.784, 1714.152
1123.879, 1425.480
1124.974, 1508.924
1126.069, 1358.801
1127.164, 1300.664
1128.259, 1409.520
1129.353, 1324.436
1130.447, 1437.844
1131.541, 1288.664
1132.635, 1141.473
1133.729, 1244.271
1134.822, 996.0586
1135.916, 1191.830
1137.009, 1261.592
1138.102, 1338.344
1139.195, 1339.268
1140.288, 1286.803
1141.380, 1312.516
1142.473, 1260.543
1143.565, 1232.896
1144.657, 1155.568
1145.749, 1142.227
1146.841, 1041.871
1147.932, 1086.500
1149.024, 856.1172
1150.115, 852.7207
1151.206, 780.3066
1152.297, 557.8789
1153.388, 376.4355
1154.479, 329.1504
1155.569, 629.5078
1156.659, 265.0215
1157.750, 289.5176
1158.839, 383.9961
1159.929, 126.4629
1161.019, 119.9102
1162.108, 42.65625
1163.198, 171.7402
1164.287, 62.12305
1165.376, 25.51953
1166.465, 37.81250
1167.553, 30.87695
1168.642, 99.40039
1169.730, 201.3398
1170.818, 83.20312
1171.906, 35.12109
1172.994, 159.9258
1174.082, 48.97070
1175.170, 81.99219
1176.257, 34.00195
1177.344, 1.947266
1178.431, 142.1133
1179.518, 123.2676
1180.605, 41.48828
1181.691, 203.7773
1182.778, 113.8262
1183.864, 51.58984
1184.950, 85.06250
1186.036, 118.6113
1187.122, 12.25000
1188.207, 15.92969
1189.292, 10.35156
1190.378, 60.69336
1191.463, 34.16797
1192.548, 84.00586
1193.632, 43.15820
1194.717, 36.71875
1195.801, 42.65039
1196.886, 37.64062
1197.970, 63.68750
1199.054, 130.1914
1200.137, 19.04883
1201.221, 252.1289
1202.305, 1.474609
1203.388, 93.86523
1204.471, 80.34570
1205.554, 64.91211
1206.637, 152.5547
1207.719, 35.67969
1208.802, 77.11719
1209.884, 19.99609
1210.966, 28.06641
1212.048, 158.0977
1213.130, 57.89648
1214.212, 86.02930
1215.293, 65.07422
1216.374, 16.74023
1217.456, 156.5137
1218.536, 92.25781
1219.617, 104.0273
1220.698, 156.4199
1221.778, 152.0508
1222.859, 26.50977
1223.939, 152.8633
1225.019, 178.2051
1226.099, 68.51367
1227.178, 50.79102
1228.258, 126.9707
1229.337, 132.1465
1230.417, 143.2285
1231.496, 64.28125
1232.574, 153.2988
1233.653, 132.2852
1234.732, 112.2363
1235.810, 261.1602
1236.888, 99.05273
1237.966, 309.9102
1239.044, 156.7363
1240.122, 36.47070
1241.199, 197.2578
1242.277, 173.9609
1243.354, 167.6484
1244.431, 114.3086
1245.508, 119.9355
1246.585, 82.52930
1247.661, 35.08398
1248.738, 213.5957
1249.814, 15.92383
1250.890, 183.4863
1251.966, 142.8633
1253.042, 106.2051
1254.117, 75.51562
1255.193, 254.7910
1256.268, 432.0332
1257.343, 245.2441
1258.418, 191.4277
1259.493, 71.57617
1260.567, 396.6914
1261.642, 378.7754
1262.716, 237.8301
1263.790, 542.8535
1264.864, 469.8438
1265.938, 533.8066
1267.011, 468.7363
1268.085, 378.6387
1269.158, 502.5078
1270.231, 406.3496
1271.304, 553.1621
1272.377, 513.9414
1273.450, 571.6934
1274.522, 528.4160
1275.594, 587.1074
1276.666, 535.7695
1277.738, 431.4023
1278.810, 464.0059
1279.882, 494.5801
1280.953, 618.1250
1282.025, 495.6387
1283.096, 639.1250
1284.167, 600.5840
1285.238, 506.0117
1286.308, 582.4082
1287.379, 566.7793
1288.449, 746.1191
1289.519, 525.4316
1290.589, 532.7148
1291.659, 669.1484
1292.729, 491.3730
1293.798, 547.3203
1294.868, 578.2109
1295.937, 501.9824
1297.006, 721.5391
1298.075, 632.4941
1299.143, 688.3008
1300.212, 668.4844
1301.280, 745.0449
1302.348, 594.0234
1303.416, 605.5938
1304.484, 633.5820
1305.552, 609.3652
1306.620, 635.2969
1307.687, 568.4199
1308.754, 640.3633
1309.821, 643.6992
1310.888, 634.3789
1311.955, 718.9609
1313.021, 533.9844
1314.088, 691.8066
1315.154, 623.4238
1316.220, 645.5215
1317.286, 694.3438
1318.352, 526.3105
1319.417, 613.4805
1320.483, 596.9258
1321.548, 762.1484
1322.613, 535.1719
1323.678, 715.1836
1324.743, 689.7305
1325.807, 584.4941
1326.872, 533.5352
1327.936, 579.7793
1329.000, 603.4883
1330.064, 622.4355
1331.128, 599.0312
1332.191, 559.7500
1333.255, 577.8477
1334.318, 638.6191
1335.381, 586.4258
1336.444, 617.0840
1337.507, 647.4883
1338.569, 642.1035
1339.632, 627.5156
1340.694, 684.0000
1341.756, 563.3574
1342.818, 579.1152
1343.880, 563.9004
1344.941, 491.7012
1346.003, 273.7109
1347.064, 510.4336
1348.125, 379.5488
1349.186, 216.3242
1350.247, 375.2578
1351.308, 457.0898
1352.368, 494.0039
1353.428, 526.3105
1354.489, 263.5469
1355.549, 494.9980
1356.608, 377.3066
1357.668, 362.0801
1358.727, 507.8926
1359.787, 359.3633
1360.846, 510.7441
1361.905, 486.4844
1362.964, 354.8125
1364.022, 369.8496
1365.081, 342.4316
1366.139, 384.4570
1367.197, 461.2676
1368.255, 348.8066
1369.313, 398.0176
1370.371, 603.2168
1371.428, 363.8398
1372.486, 491.4473
1373.543, 611.0742
1374.600, 402.5430
1375.657, 541.1367
1376.713, 604.1270
1377.770, 513.7754
1378.826, 565.6543
1379.882, 643.3652
1380.938, 535.9199
1381.994, 757.3477
1383.050, 865.3359
1384.106, 684.3242
1385.161, 706.3125
1386.216, 859.2285
1387.271, 990.6426
1388.326, 1036.635
1389.381, 1189.629
1390.435, 1133.623
1391.490, 1153.625
1392.544, 1335.629
1393.598, 1528.633
1394.652, 1454.645
1395.705, 1624.662
1396.759, 1442.686
1397.812, 1478.713
1398.866, 1522.746
1399.919, 1732.787
1400.972, 1687.834
1402.024, 1823.891
1403.077, 1592.953
1404.129, 1583.027
1405.181, 1805.109
1406.233, 1530.193
1407.285, 1560.273
1408.337, 1583.369
1409.389, 1405.434
1410.440, 1490.428
1411.491, 1423.422
1412.542, 1374.424
1413.593, 1345.434
1414.644, 1389.451
1415.695, 1296.822
1416.745, 1169.523
1417.795, 1148.574
1418.845, 1007.648
1419.895, 896.7305
1420.945, 919.8262
1421.995, 829.9414
1423.044, 791.9199
1424.093, 756.2188
1425.142, 690.7168
1426.191, 703.9473
1427.240, 624.2090
1428.289, 589.4941
1429.337, 636.7930
1430.385, 607.1133
1431.433, 504.4766
1432.481, 675.8750
1433.529, 773.2988
1434.577, 561.7910
1435.624, 544.3457
1436.672, 819.7363
1437.719, 795.3926
1438.766, 959.0781
1439.812, 894.9180
1440.859, 1005.721
1441.905, 994.2988
1442.952, 1004.250
1443.998, 957.5977
1445.044, 1012.652
1446.090, 989.6191
1447.135, 966.7344
1448.181, 1130.703
1449.226, 1103.797
1450.271, 1079.303
1451.316, 1193.143
1452.361, 1367.002
1453.405, 1434.016
1454.450, 1315.133
1455.494, 1550.387
1456.538, 1678.729
1457.582, 1872.137
1458.626, 2050.582
1459.670, 2207.090
1460.713, 2353.652
1461.757, 2363.266
1462.800, 2454.053
1463.843, 2547.893
1464.886, 2501.748
1465.928, 2311.678
1466.971, 2161.678
1468.013, 1916.699
1469.055, 1809.734
1470.097, 1515.787
1471.139, 1344.148
1472.181, 1089.969
1473.222, 970.0410
1474.263, 801.1367
1475.305, 685.2656
1476.346, 576.4492
1477.386, 564.6855
1478.427, 420.9492
1479.468, 355.2441
1480.508, 178.5625
1481.548, 135.7949
1482.588, 218.2910
1483.628, 33.69531
1484.668, 4.126953
1485.707, 28.19336
1486.747, 171.0762
1487.786, 32.40430
1488.825, 141.1484
1489.864, 157.7285
1490.902, 72.34375
1491.941, 48.99219
1492.979, 86.32422
1494.017, 47.60352
1495.055, 111.8438
1496.093, 34.04102
1497.131, 115.8008
1498.168, 5.683594
1499.206, 183.6074
1500.243, 224.5703
1501.280, 341.5742
1502.317, 515.6211
1503.354, 380.7109
1504.390, 711.8398
1505.426, 298.0020
1506.463, 575.1973
1507.499, 429.4238
1508.535, 372.6836
1509.570, 678.9727
1510.606, 682.2852
1511.641, 432.6289
1512.676, 501.0527
1513.711, 364.5527
1514.746, 330.1406
1515.781, 319.7812
1516.816, 318.5000
1517.850, 294.9102
1518.884, 496.1465
1519.918, 292.0684
1520.952, 327.0508
1521.986, 383.0996
1523.019, 220.2207
1524.053, 401.4121
1525.086, 422.6797
1526.119, 260.0156
1527.152, 238.4297
1528.185, 455.9238
1529.217, 348.4980
1530.250, 248.5898
1531.282, 399.2969
1532.314, 303.0391
1533.346, 334.7520
1534.377, 179.6641
1535.409, 233.3613
1536.440, 155.4473
1537.472, 168.9219
1538.503, 71.27539
1539.534, 156.6797
1540.564, 194.1309
1541.595, 287.6289
1542.625, 311.1758
1543.656, 231.7695
1544.686, 258.3008
1545.716, 130.0605
1546.745, 162.7441
1547.775, 96.43945
1548.804, 10.86328
1549.834, 52.82227
1550.863, 141.4785
1551.892, 139.1289
1552.920, 86.87891
1553.949, 288.5918
1554.977, 213.0898
1556.006, 133.7812
1557.034, 357.6875
1558.062, 210.8340
1559.089, 152.2637
1560.117, 12.97266
1561.144, 134.7070
1562.172, 86.08008
1563.199, 50.08203
1564.226, 182.6699
1565.252, 146.7793
1566.279, 60.49023
1567.305, 110.6426
1568.332, 78.17578
1569.358, 257.6895
1570.384, 0.4355470
1571.409, 198.4453
1572.435, 0.0000000E+00
##END=



