##NAMES=Enstatite
##RRUFFID=R070418
##IDEAL CHEMISTRY=MgSiO_3_
##LOCALITY=India
##OWNER=RRUFF
##SOURCE=Michael Scott
##DESCRIPTION=Brown translucent fragments
##STATUS=The identification of this mineral has been confirmed by X-ray diffraction and chemical analysis
##URL=rruff.info/R070418
##MEASURED CHEMISTRY=(Mg_0.86_Fe_0.14_)_Î£=1_Si_1.00_O_3_; trace amounts of Al, Ca, Mn
##PIN_ID=L00897
##ORIENTATION=Laser parallel to b* (0 1 0). Fiducial mark perpendicular to laser is parallel to c [0 0 1]
41.80000, 0.0000000E+00
43.05200, 3.148529
44.30500, 1.596008
45.55700, 1.845795
46.80900, 36.71362
48.06100, 50.71747
49.31300, 71.88354
50.56400, 75.37842
51.81600, 90.81250
53.06700, 124.7832
54.31800, 144.1957
55.56800, 175.8726
56.81900, 203.9288
58.06900, 223.9358
59.31900, 221.9624
60.56900, 233.6808
61.81900, 217.8384
63.06900, 253.9155
64.31800, 292.9715
65.56700, 370.1926
66.81600, 443.6864
68.06500, 518.2529
69.31300, 534.0718
70.56200, 497.9578
71.81000, 448.8842
73.05800, 396.2562
74.30500, 378.0693
75.55300, 354.3197
76.80000, 330.0035
78.04800, 290.1182
79.29500, 254.6604
80.54100, 178.6267
81.78800, 140.0102
83.03400, 100.8010
84.28100, 57.98709
85.52700, 17.55542
86.77200, 26.50919
88.01800, 42.22162
89.26300, 83.59528
90.50900, 117.6446
91.75400, 123.3923
92.99900, 113.8653
94.24300, 125.0757
95.48800, 110.0234
96.73200, 71.70813
97.97600, 24.87079
99.22000, 116.7139
100.4630, 246.8214
101.7070, 533.1937
102.9500, 878.8308
104.1930, 1161.733
105.4360, 1315.900
106.6790, 1422.333
107.9210, 1586.030
109.1640, 1505.993
110.4060, 1254.220
111.6480, 1236.710
112.8890, 1269.466
114.1310, 1461.698
115.3720, 1912.767
116.6130, 2227.314
117.8540, 2790.130
119.0950, 3482.194
120.3360, 4167.492
121.5760, 5043.007
122.8160, 5853.725
124.0560, 6902.631
125.2960, 8282.713
126.5350, 9500.959
127.7750, 10543.37
129.0140, 10712.91
130.2530, 10345.58
131.4920, 9554.353
132.7300, 8539.245
133.9690, 7507.255
135.2070, 6726.388
136.4450, 6168.627
137.6830, 5784.956
138.9210, 5657.319
140.1580, 5655.652
141.3950, 5576.894
142.6330, 5542.064
143.8690, 5448.223
145.1060, 5415.527
146.3430, 5224.008
147.5790, 5009.666
148.8150, 4665.501
150.0510, 4326.515
151.2870, 4045.708
152.5220, 3599.080
153.7580, 3465.629
154.9930, 3209.356
156.2280, 2914.262
157.4620, 2781.345
158.6970, 2582.606
159.9310, 2492.043
161.1660, 2379.657
162.4000, 2464.448
163.6330, 2414.415
164.8670, 2416.557
166.1000, 2241.873
167.3340, 2266.365
168.5670, 2156.031
169.8000, 2121.871
171.0320, 2019.885
172.2650, 1992.073
173.4970, 1884.433
174.7290, 1806.965
175.9610, 1852.669
177.1930, 1871.545
178.4240, 1826.591
179.6550, 1863.808
180.8870, 1927.194
182.1170, 1874.749
183.3480, 2001.473
184.5790, 2011.365
185.8090, 2127.425
187.0390, 2168.652
188.2690, 2182.045
189.4990, 2279.607
190.7290, 2278.187
191.9580, 2275.710
193.1870, 2234.133
194.4160, 2175.446
195.6450, 2194.732
196.8740, 2059.930
198.1020, 2041.017
199.3310, 1901.991
200.5590, 1977.876
201.7870, 1849.707
203.0140, 1830.427
204.2420, 1720.013
205.4690, 1684.506
206.6960, 1646.993
207.9230, 1481.384
209.1500, 1572.811
210.3760, 1472.125
211.6030, 1402.461
212.8290, 1481.619
214.0550, 1507.578
215.2810, 1542.114
216.5060, 1579.439
217.7320, 1748.603
218.9570, 1794.908
220.1820, 1914.317
221.4070, 2184.792
222.6320, 2338.448
223.8560, 2730.259
225.0800, 3177.219
226.3040, 3670.219
227.5280, 4168.253
228.7520, 4821.858
229.9760, 5573.313
231.1990, 6198.496
232.4220, 6983.052
233.6450, 7551.540
234.8680, 7904.039
236.0910, 7589.240
237.3130, 6945.523
238.5350, 6033.337
239.7570, 5086.448
240.9790, 4080.809
242.2010, 3244.109
243.4220, 2561.988
244.6430, 2025.898
245.8640, 1726.416
247.0850, 1357.140
248.3060, 1313.990
249.5270, 1207.966
250.7470, 1143.067
251.9670, 1047.292
253.1870, 1107.641
254.4070, 1048.111
255.6260, 1214.703
256.8460, 967.4150
258.0650, 1035.246
259.2840, 1222.196
260.5030, 1150.263
261.7220, 952.4468
262.9400, 981.7461
264.1580, 875.1606
265.3760, 1016.688
266.5940, 1024.329
267.8120, 1069.082
269.0290, 1220.947
270.2470, 1225.922
271.4640, 1251.008
272.6810, 1380.203
273.8980, 1207.509
275.1140, 1100.922
276.3310, 1086.444
277.5470, 953.0752
278.7630, 829.8135
279.9790, 787.6602
281.1940, 774.6143
282.4100, 772.6748
283.6250, 743.8428
284.8400, 884.1172
286.0550, 1028.499
287.2700, 1043.986
288.4850, 1272.583
289.6990, 1293.287
290.9130, 1553.100
292.1270, 1715.021
293.3410, 1842.050
294.5540, 1955.186
295.7680, 2015.427
296.9810, 1987.774
298.1940, 2027.227
299.4070, 2024.783
300.6200, 1885.444
301.8320, 1923.208
303.0450, 1974.075
304.2570, 1800.044
305.4690, 1787.114
306.6800, 1822.286
307.8920, 1778.557
309.1030, 1698.929
310.3150, 1924.398
311.5260, 1887.966
312.7360, 2148.633
313.9470, 2337.396
315.1580, 2391.259
316.3680, 2826.221
317.5780, 2944.286
318.7880, 3361.452
319.9980, 3732.720
321.2070, 3967.088
322.4170, 4498.550
323.6260, 4941.104
324.8350, 5694.750
326.0430, 6491.497
327.2520, 7570.350
328.4610, 8774.294
329.6690, 10199.33
330.8770, 12088.46
332.0850, 14100.68
333.2920, 16093.98
334.5000, 18463.37
335.7070, 20554.97
336.9140, 23050.24
338.1210, 24524.88
339.3280, 25237.33
340.5350, 25262.09
341.7410, 23795.57
342.9470, 22054.77
344.1540, 19374.35
345.3590, 16869.48
346.5650, 14442.45
347.7710, 12115.44
348.9760, 10081.64
350.1810, 8582.693
351.3860, 7536.441
352.5910, 6593.794
353.7950, 6133.624
355.0000, 5463.727
356.2040, 4952.086
357.4080, 4457.697
358.6120, 4113.385
359.8150, 3688.781
361.0190, 3367.532
362.2220, 3069.193
363.4250, 2839.798
364.6280, 2740.647
365.8310, 2645.297
367.0340, 2619.747
368.2360, 2564.785
369.4380, 2692.657
370.6400, 2823.614
371.8420, 2895.654
373.0440, 3119.779
374.2450, 3351.992
375.4470, 3608.292
376.6480, 3782.680
377.8490, 3890.159
379.0490, 3914.735
380.2500, 3811.418
381.4500, 3800.207
382.6510, 3567.109
383.8510, 3402.135
385.0500, 3181.279
386.2500, 3162.540
387.4500, 3173.916
388.6490, 3208.400
389.8480, 3451.981
391.0470, 3465.638
392.2460, 3845.369
393.4440, 4109.171
394.6430, 4261.050
395.8410, 4541.000
397.0390, 4703.022
398.2370, 4786.117
399.4340, 4872.281
400.6320, 4897.117
401.8290, 4916.821
403.0260, 4842.196
404.2230, 4793.640
405.4200, 4678.153
406.6170, 4545.733
407.8130, 4620.379
409.0090, 4545.095
410.2050, 4569.875
411.4010, 4473.811
412.5970, 4405.633
413.7920, 4221.610
414.9880, 3910.651
416.1830, 3705.757
417.3780, 3304.924
418.5730, 2983.155
419.7670, 2490.447
420.9620, 2156.803
422.1560, 1744.218
423.3500, 1691.695
424.5440, 1377.232
425.7380, 1182.828
426.9310, 1228.484
428.1240, 1060.198
429.3180, 1028.971
430.5110, 1108.801
431.7030, 1273.688
432.8960, 1437.630
434.0890, 1616.629
435.2810, 1806.684
436.4730, 2065.792
437.6650, 2228.956
438.8570, 2305.174
440.0480, 2265.444
441.2390, 1967.768
442.4310, 1731.143
443.6220, 1476.569
444.8120, 1176.047
446.0030, 898.5762
447.1940, 689.1548
448.3840, 587.7827
449.5740, 525.4595
450.7640, 539.1846
451.9540, 476.9575
453.1430, 463.7783
454.3330, 407.6455
455.5220, 558.5596
456.7110, 550.5195
457.9000, 521.8784
459.0890, 422.7290
460.2770, 577.3125
461.4650, 576.6113
462.6540, 594.5327
463.8420, 531.9116
465.0290, 416.3271
466.2170, 356.6323
467.4050, 462.9795
468.5920, 321.4985
469.7790, 247.2285
470.9660, 244.1548
472.1530, 100.1543
473.3390, 138.6934
474.5250, 11.27051
475.7120, 18.88232
476.8980, 74.52881
478.0840, 30.78906
479.2690, 44.08643
480.4550, 47.63135
481.6400, 106.6118
482.8250, 108.8677
484.0100, 79.13037
485.1950, 47.39746
486.3800, 133.6567
487.5640, 100.9453
488.7480, 152.2500
489.9320, 185.5933
491.1160, 203.9795
492.3000, 234.4136
493.4840, 312.9277
494.6670, 232.5298
495.8500, 164.2129
497.0330, 290.9307
498.2160, 203.7393
499.3990, 309.6094
500.5810, 341.5869
501.7630, 157.6924
502.9460, 240.8354
504.1280, 185.0586
505.3090, 78.35352
506.4910, 171.6733
507.6720, 73.01318
508.8540, 80.62256
510.0350, 197.2949
511.2160, 336.5908
512.3960, 428.7944
513.5770, 596.6006
514.7570, 772.4688
515.9380, 853.3750
517.1180, 974.3276
518.2970, 1094.302
519.4770, 1079.325
520.6570, 1025.395
521.8360, 977.4854
523.0150, 1004.610
524.1940, 1003.783
525.3730, 1031.993
526.5510, 982.2402
527.7300, 1011.542
528.9080, 1035.858
530.0860, 1025.191
531.2640, 1182.541
532.4420, 1408.916
533.6200, 1600.303
534.7970, 1726.722
535.9740, 1930.152
537.1510, 2084.594
538.3280, 2113.056
539.5050, 2165.526
540.6810, 2033.010
541.8580, 1838.505
543.0340, 1677.009
544.2100, 1609.521
545.3860, 1472.042
546.5610, 1446.570
547.7370, 1325.105
548.9120, 1244.663
550.0870, 1088.227
551.2620, 1026.799
552.4370, 962.3770
553.6120, 830.9673
554.7860, 676.5620
555.9600, 574.1602
557.1340, 513.7617
558.3080, 508.3657
559.4820, 438.9712
560.6560, 441.5791
561.8290, 538.1885
563.0020, 537.7988
564.1750, 504.4097
565.3480, 619.0210
566.5210, 671.6323
567.6930, 669.2427
568.8660, 746.8525
570.0380, 821.4604
571.2100, 1078.067
572.3820, 1112.671
573.5530, 1078.273
574.7250, 1052.873
575.8960, 1003.469
577.0670, 936.0728
578.2380, 924.6484
579.4090, 797.2329
580.5800, 667.8115
581.7500, 633.3857
582.9210, 622.9546
584.0910, 508.5176
585.2610, 365.0747
586.4300, 445.6255
587.6000, 325.1685
588.7690, 475.7051
589.9390, 399.2339
591.1080, 411.7549
592.2770, 313.2676
593.4450, 385.7725
594.6140, 295.2676
595.7820, 264.7544
596.9500, 192.2319
598.1190, 161.6987
599.2860, 140.9121
600.4540, 115.5840
601.6220, 128.9912
602.7890, 109.3755
603.9560, 131.7314
605.1230, 184.0640
606.2900, 213.3813
607.4570, 205.6875
608.6230, 103.9800
609.7890, 75.23926
610.9560, 171.4541
612.1220, 170.6504
613.2870, 245.8271
614.4530, 220.9902
615.6180, 217.1289
616.7840, 280.2627
617.9490, 345.3823
619.1140, 366.3516
620.2790, 401.7363
621.4430, 428.8213
622.6080, 461.5747
623.7720, 530.7559
624.9360, 516.1924
626.1000, 668.9868
627.2640, 670.7451
628.4270, 794.7490
629.5910, 801.6533
630.7540, 1003.084
631.9170, 1003.506
633.0800, 960.6089
634.2430, 1143.031
635.4050, 1164.193
636.5680, 1354.559
637.7300, 1523.819
638.8920, 1616.307
640.0540, 1845.267
641.2150, 2211.537
642.3770, 2519.653
643.5380, 2901.669
644.7000, 3388.004
645.8610, 3954.848
647.0210, 4652.686
648.1820, 5398.669
649.3430, 6455.562
650.5030, 7580.864
651.6630, 9305.386
652.8230, 11028.94
653.9830, 13030.09
655.1430, 15368.74
656.3020, 18007.15
657.4620, 20610.38
658.6210, 23018.46
659.7800, 24972.64
660.9390, 26228.83
662.0970, 25784.05
663.2560, 25166.87
664.4140, 23516.90
665.5720, 21573.33
666.7300, 19584.92
667.8880, 18213.50
669.0460, 17215.50
670.2030, 16728.53
671.3600, 17031.75
672.5180, 18020.34
673.6740, 19578.15
674.8310, 21730.58
675.9880, 24474.34
677.1440, 27141.38
678.3010, 30614.75
679.4570, 33369.64
680.6130, 35570.39
681.7690, 37093.71
682.9240, 37251.01
684.0800, 35511.57
685.2350, 32884.83
686.3900, 29403.15
687.5450, 25014.98
688.7000, 21330.18
689.8540, 17460.88
691.0090, 14524.04
692.1630, 11842.96
693.3170, 9675.084
694.4710, 8032.177
695.6250, 6812.251
696.7780, 5690.304
697.9320, 5045.335
699.0850, 4385.348
700.2380, 3839.338
701.3910, 3343.309
702.5440, 2918.258
703.6970, 2564.638
704.8490, 2260.868
706.0010, 2029.981
707.1530, 1851.847
708.3050, 1702.693
709.4570, 1650.518
710.6090, 1487.321
711.7600, 1384.104
712.9110, 1303.867
714.0620, 1192.608
715.2130, 1132.328
716.3640, 996.0288
717.5150, 980.7080
718.6650, 957.3667
719.8150, 883.0054
720.9650, 790.6226
722.1150, 829.2197
723.2650, 746.7964
724.4150, 657.3525
725.5640, 541.8882
726.7130, 549.8799
727.8630, 599.8989
729.0110, 581.3740
730.1600, 625.8281
731.3090, 676.2632
732.4570, 639.6772
733.6060, 611.0718
734.7540, 624.4463
735.9020, 522.8013
737.0490, 472.7822
738.1970, 469.2969
739.3440, 509.1030
740.4920, 591.2183
741.6390, 550.7344
742.7860, 576.8169
743.9320, 570.8848
745.0790, 613.0864
746.2250, 529.2676
747.3720, 613.2988
748.5180, 604.1416
749.6640, 695.8076
750.8100, 595.4224
751.9550, 607.5156
753.1010, 467.5923
754.2460, 502.6519
755.3910, 330.6963
756.5360, 152.7227
757.6810, 106.7397
758.8250, 37.17871
759.9700, 189.7329
761.1140, 20.72266
762.2580, 116.7051
763.4020, 120.6895
764.5460, 68.66992
765.6900, 134.6626
766.8330, 41.66309
767.9760, 14.32227
769.1200, 34.30908
770.2620, 34.69775
771.4050, 91.26172
772.5480, 24.77051
773.6900, 42.16504
774.8330, 61.11621
775.9750, 18.06104
777.1170, 46.99805
778.2590, 35.91553
779.4000, 44.79785
780.5420, 38.69482
781.6830, 39.41895
782.8240, 53.56299
783.9650, 157.2842
785.1060, 48.80225
786.2470, 25.10303
787.3870, 130.0513
788.5280, 15.90332
789.6680, 56.16406
790.8080, 130.2891
791.9480, 42.50928
793.0870, 72.77881
794.2270, 18.88770
795.3660, 85.46387
796.5060, 87.88525
797.6450, 13.62305
798.7830, 41.88672
799.9220, 101.4419
801.0610, 58.07227
802.1990, 65.75488
803.3370, 133.4927
804.4750, 46.67969
805.6130, 5.840332
806.7510, 3.983887
807.8890, 34.89014
809.0260, 26.19971
810.1630, 64.72070
811.3000, 151.3096
812.4370, 3.330566
813.5740, 21.66211
814.7110, 116.3198
815.8470, 4.706055
816.9830, 2.747070
818.1190, 67.19775
819.2550, 157.1357
820.3910, 1.932617
821.5270, 22.98828
822.6620, 6.902832
823.7970, 65.19043
824.9330, 49.67725
826.0670, 13.45996
827.2020, 38.39014
828.3370, 38.76416
829.4710, 68.05859
830.6060, 178.8770
831.7400, 62.69141
832.8740, 10.50098
834.0080, 150.3086
835.1410, 78.11230
836.2750, 116.9126
837.4080, 156.7104
838.5410, 209.5049
839.6740, 221.0898
840.8070, 189.0898
841.9400, 255.8789
843.0730, 224.6670
844.2050, 256.4536
845.3370, 451.2397
846.4690, 444.0254
847.6010, 695.8105
848.7330, 828.5962
849.8640, 927.3818
850.9960, 1192.168
852.1270, 1488.956
853.2580, 1797.744
854.3890, 1918.534
855.5200, 2234.326
856.6500, 2454.119
857.7810, 2410.915
858.9110, 2533.713
860.0410, 2449.514
861.1710, 2489.316
862.3010, 2263.123
863.4310, 2045.934
864.5600, 1901.747
865.6900, 1698.875
866.8190, 1563.386
867.9480, 1366.212
869.0770, 1219.042
870.2050, 1074.876
871.3340, 916.7168
872.4620, 811.5615
873.5900, 714.4150
874.7180, 618.2783
875.8460, 456.1558
876.9740, 520.0449
878.1010, 502.9487
879.2290, 420.8652
880.3560, 543.7900
881.4830, 534.7222
882.6100, 379.6621
883.7370, 276.6196
884.8630, 344.6001
885.9900, 455.5918
887.1160, 403.5942
888.2420, 493.6055
889.3680, 501.6270
890.4940, 634.6582
891.6200, 434.6973
892.7450, 441.7461
893.8700, 436.8032
894.9960, 499.8623
896.1210, 497.9414
897.2460, 470.5210
898.3700, 439.6201
899.4950, 468.7305
900.6190, 427.5742
901.7430, 349.7051
902.8670, 440.1758
903.9910, 323.1787
905.1150, 310.0664
906.2390, 372.4980
907.3620, 403.0049
908.4850, 297.2500
909.6080, 400.8975
910.7310, 473.4648
911.8540, 367.6357
912.9770, 342.1699
914.0990, 402.4053
915.2210, 418.7246
916.3440, 527.9756
917.4660, 614.2637
918.5870, 776.3945
919.7090, 936.3770
920.8310, 1032.503
921.9520, 1203.772
923.0730, 1372.648
924.1940, 1628.312
925.3150, 1834.947
926.4360, 1986.996
927.5560, 2241.568
928.6770, 2471.382
929.7970, 2806.405
930.9170, 3070.590
932.0370, 3256.692
933.1570, 3557.784
934.2760, 3773.856
935.3960, 3879.348
936.5150, 3717.619
937.6340, 3984.514
938.7530, 3772.249
939.8720, 3531.002
940.9910, 3425.342
942.1090, 3230.675
943.2280, 3060.824
944.3460, 2841.627
945.4640, 2654.188
946.5820, 2379.293
947.6990, 2209.037
948.8170, 2101.501
949.9340, 1770.635
951.0520, 1687.263
952.1690, 1620.037
953.2860, 1491.305
954.4030, 1364.618
955.5190, 1354.710
956.6360, 1222.118
957.7520, 1339.481
958.8680, 1322.343
959.9840, 1157.845
961.1000, 1083.840
962.2160, 1123.400
963.3310, 1064.199
964.4470, 1063.196
965.5620, 1045.471
966.6770, 1062.148
967.7920, 1044.852
968.9060, 1059.581
970.0210, 920.3389
971.1360, 1029.123
972.2500, 1003.937
973.3640, 1156.787
974.4780, 1234.691
975.5920, 1437.629
976.7050, 1418.613
977.8190, 1404.624
978.9320, 1593.662
980.0450, 1815.729
981.1580, 1871.854
982.2710, 2025.023
983.3840, 2415.237
984.4970, 2457.479
985.6090, 2743.754
986.7210, 3267.056
987.8330, 3703.393
988.9450, 4324.038
990.0570, 4971.150
991.1690, 5799.568
992.2800, 6745.014
993.3920, 7753.486
994.5030, 9309.985
995.6140, 10970.51
996.7250, 13078.07
997.8350, 15266.65
998.9460, 18634.26
1000.056, 22019.89
1001.167, 25980.56
1002.277, 31066.26
1003.387, 36493.99
1004.496, 42327.74
1005.606, 48012.53
1006.715, 52612.34
1007.825, 55302.18
1008.934, 55510.05
1010.043, 53809.93
1011.152, 49924.86
1012.260, 45135.80
1013.369, 39974.78
1014.477, 34859.78
1015.586, 30618.80
1016.694, 27580.85
1017.802, 24837.94
1018.909, 22819.03
1020.017, 20941.16
1021.124, 19765.32
1022.232, 18612.77
1023.339, 17420.97
1024.446, 16435.19
1025.553, 15711.46
1026.659, 15148.96
1027.766, 14322.27
1028.872, 13473.62
1029.979, 12823.98
1031.085, 11879.38
1032.191, 11047.80
1033.296, 10233.24
1034.402, 9260.706
1035.507, 8499.196
1036.613, 7726.712
1037.718, 7050.262
1038.823, 6334.855
1039.928, 5757.475
1041.032, 5128.252
1042.137, 4603.779
1043.241, 4118.473
1044.346, 3710.266
1045.450, 3325.022
1046.554, 3007.551
1047.657, 2787.828
1048.761, 2505.950
1049.864, 2297.750
1050.968, 2141.759
1052.071, 1816.790
1053.174, 1795.888
1054.277, 1563.042
1055.379, 1535.025
1056.482, 1417.578
1057.584, 1186.060
1058.687, 1162.457
1059.789, 1109.063
1060.891, 856.6592
1061.992, 812.0762
1063.094, 712.7656
1064.196, 809.2695
1065.297, 801.9482
1066.398, 601.8154
1067.499, 605.4668
1068.600, 440.3223
1069.701, 556.7402
1070.801, 508.4980
1071.902, 400.7148
1073.002, 383.6396
1074.102, 346.1973
1075.202, 332.2480
1076.302, 360.8281
1077.402, 289.6543
1078.501, 348.1289
1079.600, 234.9121
1080.700, 185.1670
1081.799, 196.4199
1082.898, 215.3770
1083.996, 208.7803
1085.095, 253.9346
1086.193, 199.0742
1087.292, 308.7529
1088.390, 223.8691
1089.488, 212.9990
1090.586, 297.6416
1091.683, 209.0078
1092.781, 217.7041
1093.878, 200.2461
1094.975, 121.8232
1096.073, 141.1855
1097.169, 156.7744
1098.266, 207.5762
1099.363, 160.2148
1100.459, 193.6289
1101.556, 227.2090
1102.652, 243.9082
1103.748, 254.4395
1104.844, 300.6934
1105.940, 277.6885
1107.035, 239.2705
1108.131, 274.6240
1109.226, 180.7705
1110.321, 183.6201
1111.416, 278.4277
1112.511, 184.2334
1113.605, 265.9082
1114.700, 189.5312
1115.794, 198.2314
1116.889, 82.73047
1117.983, 241.4238
1119.077, 174.9932
1120.170, 347.3906
1121.264, 374.3955
1122.357, 213.4561
1123.451, 339.0713
1124.544, 290.1934
1125.637, 369.2588
1126.730, 194.4883
1127.823, 159.1719
1128.915, 215.6904
1130.008, 234.8262
1131.100, 186.9688
1132.192, 103.4580
1133.284, 90.14355
1134.376, 184.8320
1135.467, 182.7734
1136.559, 224.1484
1137.650, 205.4082
1138.742, 159.1211
1139.833, 170.5215
1140.924, 71.60547
1142.014, 295.3555
1143.105, 16.68750
1144.195, 62.29395
1145.286, 164.7070
1146.376, 23.99219
1147.466, 127.1553
1148.556, 75.08887
1149.646, 153.5947
1150.735, 114.0439
1151.825, 177.4609
1152.914, 19.41309
1154.003, 53.45898
1155.092, 88.44336
1156.181, 161.1074
1157.270, 12.71484
1158.358, 182.2793
1159.447, 10.42188
1160.535, 101.1221
1161.623, 97.18652
1162.711, 21.29004
1163.799, 95.94336
1164.886, 69.59180
1165.974, 114.4951
1167.061, 58.09668
1168.148, 117.6992
1169.235, 65.26465
1170.322, 128.2812
1171.409, 11.80957
1172.496, 25.70508
1173.582, 19.80469
1174.669, 100.7803
1175.755, 23.77637
1176.841, 44.63770
1177.927, 113.0312
1179.012, 16.44434
1180.098, 117.2070
1181.183, 110.0615
1182.269, 81.56152
1183.354, 131.7852
1184.439, 52.01367
1185.524, 47.55176
1186.608, 48.74023
1187.693, 23.07520
1188.777, 15.78809
1189.862, 33.78711
1190.946, 47.80762
1192.030, 105.2051
1193.113, 109.6934
1194.197, 94.36816
1195.281, 66.12598
1196.364, 43.64551
1197.447, 91.74707
1198.530, 57.52734
1199.613, 1.143555
1200.696, 19.07812
1201.779, 18.45410
1202.861, 85.21094
1203.944, 27.23828
1205.026, 17.82324
1206.108, 104.4590
1207.190, 123.1064
1208.271, 16.08301
1209.353, 119.7920
1210.435, 55.47754
1211.516, 62.46094
1212.597, 7.587891
1213.678, 43.31445
1214.759, 167.8193
1215.840, 55.08789
1216.920, 126.4355
1218.001, 36.89551
1219.081, 123.5742
1220.161, 32.01172
1221.241, 10.62305
1222.321, 32.97754
1223.401, 9.304688
1224.480, 9.573242
1225.560, 15.14551
1226.639, 56.32227
1227.718, 35.46094
1228.797, 54.54590
1229.876, 93.61914
1230.955, 65.64160
1232.033, 40.62891
1233.112, 44.57422
1234.190, 4.520508
1235.268, 69.67383
1236.346, 20.07910
1237.424, 42.21582
1238.501, 174.4082
1239.579, 48.99805
1240.656, 53.54688
1241.733, 78.94629
1242.811, 28.53906
1243.888, 27.20801
1244.964, 70.07617
1246.041, 29.29297
1247.117, 72.46191
1248.194, 7.588867
1249.270, 123.6592
1250.346, 48.69238
1251.422, 237.6797
1252.498, 84.78906
1253.573, 189.7031
1254.649, 48.57910
1255.724, 163.4111
1256.800, 78.20703
1257.875, 34.96094
1258.950, 184.6650
1260.024, 182.3330
1261.099, 101.9639
1262.173, 10.63574
1263.248, 78.17188
1264.322, 58.45605
1265.396, 42.11426
1266.470, 148.5156
1267.544, 74.87793
1268.617, 112.1982
1269.691, 186.5830
1270.764, 71.82520
1271.837, 124.0244
1272.910, 37.18457
1273.983, 107.2939
1275.056, 129.3623
1276.129, 156.3906
1277.201, 209.3809
1278.273, 93.33496
1279.346, 99.24707
1280.418, 102.1182
1281.489, 153.9482
1282.561, 210.4688
1283.633, 181.2256
1284.704, 3.054688
1285.776, 129.5947
1286.847, 168.9980
1287.918, 130.5703
1288.989, 261.1133
1290.059, 142.8330
1291.130, 130.4141
1292.200, 336.8428
1293.271, 232.2344
1294.341, 167.5908
1295.411, 275.9092
1296.481, 232.1924
1297.551, 379.4404
1298.620, 125.6523
1299.690, 256.8262
1300.759, 145.8613
1301.828, 264.0986
1302.897, 209.4424
1303.966, 270.4688
1305.035, 259.5303
1306.103, 378.4561
1307.172, 228.3770
1308.240, 252.0898
1309.308, 259.1279
1310.376, 171.9443
1311.444, 285.7236
1312.512, 264.4736
1313.580, 156.1523
1314.647, 182.9951
1315.714, 202.5039
1316.781, 167.6514
1317.848, 255.0947
1318.915, 219.3525
1319.982, 195.6152
1321.049, 168.0645
1322.115, 150.2256
1323.181, 235.5811
1324.248, 101.7725
1325.314, 72.75879
1326.380, 180.9590
1327.445, 284.9707
1328.511, 165.4199
1329.576, 237.5342
1330.642, 149.2109
1331.707, 191.1611
1332.772, 230.4639
1333.837, 236.2578
1334.902, 179.5176
1335.966, 184.5137
1337.031, 211.8613
1338.095, 122.8828
1339.159, 183.4160
1340.223, 279.9395
1341.287, 194.7402
1342.351, 184.0801
1343.415, 280.6543
1344.478, 174.2217
1345.541, 193.2334
1346.605, 288.7891
1347.668, 182.3125
1348.731, 100.3037
1349.793, 248.5684
1350.856, 146.4824
1351.918, 245.5352
1352.981, 62.53223
1354.043, 226.7314
1355.105, 199.6855
1356.167, 177.4072
1357.229, 416.2715
1358.290, 359.3379
1359.352, 218.2207
1360.413, 332.8369
1361.475, 232.4609
1362.536, 266.9971
1363.597, 165.3799
1364.657, 172.1543
1365.718, 223.1367
1366.779, 327.3018
1367.839, 336.7432
1368.899, 247.2041
1369.959, 216.6475
1371.019, 191.1992
1372.079, 101.7783
1373.139, 178.2588
1374.198, 236.9189
1375.258, 171.3613
1376.317, 322.9033
1377.376, 188.5977
1378.435, 235.6602
1379.494, 63.64551
1380.553, 119.1240
1381.611, 189.0039
1382.670, 170.9170
1383.728, 164.6416
1384.786, 202.8916
1385.844, 176.2842
1386.902, 113.0371
1387.960, 205.7715
1389.017, 76.22949
1390.075, 159.3662
1391.132, 195.4775
1392.189, 218.3145
1393.246, 112.6953
1394.303, 93.16992
1395.360, 197.1680
1396.417, 61.45703
1397.473, 135.0400
1398.529, 168.9355
1399.585, 209.2285
1400.642, 216.2959
1401.697, 188.3916
1402.753, 198.7334
1403.809, 194.1064
1404.864, 172.6904
1405.920, 172.8496
1406.975, 193.7051
1408.030, 147.7412
1409.085, 110.7285
1410.140, 87.26758
1411.194, 194.6729
1412.249, 218.3770
1413.303, 151.5518
1414.358, 176.8857
1415.412, 76.16504
1416.466, 19.73145
1417.520, 42.91309
1418.573, 180.0352
1419.627, 204.5908
1420.680, 118.1318
1421.733, 152.3975
1422.787, 136.9482
1423.840, 177.4805
1424.892, 108.0068
1425.945, 200.0654
1426.998, 145.5918
1428.050, 16.63965
1429.103, 122.0664
1430.155, 142.3721
1431.207, 218.7881
1432.259, 229.9590
1433.310, 106.6006
1434.362, 193.9541
1435.414, 179.3525
1436.465, 72.78711
1437.516, 135.0088
1438.567, 213.0947
1439.618, 100.0039
1440.669, 238.5957
1441.720, 211.3008
1442.770, 230.3262
1443.820, 248.0215
1444.871, 169.7988
1445.921, 155.5576
1446.971, 208.4150
1448.021, 182.4014
1449.070, 193.7637
1450.120, 192.7080
1451.169, 230.6162
1452.219, 180.4229
1453.268, 131.5166
1454.317, 212.5986
1455.366, 170.7949
1456.414, 202.1016
1457.463, 87.15820
1458.511, 279.4414
1459.560, 230.3184
1460.608, 67.61035
1461.656, 201.8896
1462.704, 86.15234
1463.752, 151.4043
1464.799, 196.7031
1465.847, 239.0645
1466.894, 128.4385
1467.941, 189.8486
1468.988, 50.32520
1470.035, 247.8633
1471.082, 200.4189
1472.129, 142.9854
1473.175, 249.3350
1474.222, 282.8945
1475.268, 250.4570
1476.314, 213.0312
1477.360, 178.4854
1478.406, 62.07422
1479.452, 206.6816
1480.498, 184.2988
1481.543, 79.76660
1482.588, 232.3975
1483.633, 96.05469
1484.679, 155.7178
1485.723, 215.3857
1486.768, 134.0684
1487.813, 287.7500
1488.857, 206.4619
1489.902, 51.20996
1490.946, 198.5762
1491.990, 77.11328
1493.034, 104.8496
1494.078, 164.5898
1495.122, 153.3359
1496.165, 134.0908
1497.209, 133.4971
1498.252, 171.2686
1499.295, 73.04883
1500.338, 76.83691
1501.381, 182.6348
1502.424, 34.43750
1503.466, 110.2725
1504.509, 131.1416
1505.551, 2.055664
1506.593, 74.01562
1507.635, 141.0195
1508.677, 247.0615
1509.719, 73.13965
1510.761, 62.24902
1511.802, 122.3936
1512.844, 17.57617
1513.885, 31.20898
1514.926, 73.04395
1515.967, 105.3311
1517.008, 127.6514
1518.049, 114.0039
1519.089, 185.3887
1520.130, 123.8086
1521.170, 66.26758
1522.210, 209.7646
1523.250, 158.3018
1524.290, 82.88281
1525.330, 61.50488
1526.370, 208.1709
1527.409, 10.88379
1528.448, 234.6592
1529.488, 175.4902
1530.527, 188.3818
1531.566, 94.34668
1532.605, 40.38086
1533.643, 14.51172
1534.682, 53.67578
1535.720, 160.6299
1536.759, 83.96973
1537.797, 98.39648
1538.835, 122.8613
1539.873, 36.13574
1540.910, 164.3242
1541.948, 66.87207
1542.986, 206.5098
1544.023, 214.2422
1545.060, 215.0762
1546.097, 196.5547
1547.134, 170.5791
1548.171, 76.71777
1549.208, 136.3740
1550.244, 168.3408
1551.281, 68.37207
1552.317, 66.49121
1553.353, 224.0801
1554.389, 110.3750
1555.425, 178.2422
1556.461, 145.4512
1557.497, 70.54785
1558.532, 179.4668
1559.567, 318.2539
1560.603, 93.86621
1561.638, 50.58691
1562.673, 0.6884770
1563.708, 0.0000000E+00
##END=



