##NAMES=Epidote
##RRUFFID=R050303
##IDEAL CHEMISTRY=Ca_2_Fe^3+^Al_2_(Si_2_O_7_)(SiO_4_)O(OH)
##LOCALITY=San Martin mine, Zacatecas, Mexico
##OWNER=RRUFF
##SOURCE=Eugene Schlepp
##DESCRIPTION=Green elongated prismatic crystals
##STATUS=The identification of this mineral has been confirmed by X-ray diffraction and chemical analysis
##URL=rruff.info/R050303
##MEASURED CHEMISTRY=Ca_2.00_Al_2.00_(Fe^3+^_0.97_Al_0.03_)(SiO_4_)(Si_2_O_7_)O(OH)
##PIN_ID=L01452
##ORIENTATION=Laser parallel to c* (0 0 1). Fiducial mark perpendicular to laser is parallel to a [1 0 0]
53.91000, 0.0000000E+00
55.14900, 73.31177
56.38700, 212.9377
57.62600, 254.3959
58.86400, 224.5144
60.10300, 118.6309
61.34100, 3.188843
62.57900, 27.69617
63.81700, 38.73145
65.05400, 59.10547
66.29200, 12.87744
67.52900, 93.60693
68.76700, 186.6504
70.00400, 351.2085
71.24100, 533.2183
72.47700, 759.1245
73.71400, 1030.395
74.95100, 1370.544
76.18700, 1738.084
77.42300, 2233.769
78.65900, 2849.380
79.89500, 3809.712
81.13100, 4970.576
82.36700, 6531.803
83.60200, 8175.234
84.83700, 10025.73
86.07200, 12240.17
87.30800, 14185.42
88.54200, 15981.39
89.77700, 17469.05
91.01200, 18176.54
92.24600, 19205.76
93.48000, 19347.50
94.71400, 18661.63
95.94800, 17003.04
97.18200, 14733.64
98.41600, 12737.44
99.64900, 10712.42
100.8830, 8921.518
102.1160, 7795.663
103.3490, 6730.790
104.5820, 6269.847
105.8150, 5912.784
107.0470, 6035.555
108.2800, 5346.280
109.5120, 5391.455
110.7440, 4404.514
111.9760, 4056.272
113.2080, 3806.703
114.4400, 3832.781
115.6710, 3727.483
116.9030, 3570.792
118.1340, 3340.682
119.3650, 3326.141
120.5960, 3179.147
121.8270, 3344.689
123.0580, 3392.750
124.2880, 3314.690
125.5190, 3360.446
126.7490, 3425.785
127.9790, 3467.622
129.2090, 3452.886
130.4390, 3391.577
131.6680, 3362.134
132.8980, 3150.300
134.1270, 3016.402
135.3560, 2819.511
136.5850, 2776.659
137.8140, 2845.907
139.0430, 2868.521
140.2710, 2856.865
141.5000, 2937.068
142.7280, 2901.183
143.9560, 2916.963
145.1840, 2903.970
146.4120, 2938.072
147.6390, 2726.280
148.8670, 2707.604
150.0940, 2768.050
151.3210, 2815.628
152.5490, 2887.343
153.7750, 2982.199
155.0020, 3283.202
156.2290, 3601.857
157.4550, 4044.671
158.6810, 4541.141
159.9080, 5192.772
161.1340, 5846.569
162.3590, 6655.530
163.5850, 7300.660
164.8110, 7637.959
166.0360, 7381.427
167.2610, 6938.067
168.4860, 6318.877
169.7110, 5462.857
170.9360, 4762.012
172.1610, 4065.339
173.3850, 3472.838
174.6100, 2933.509
175.8340, 2667.354
177.0580, 2423.371
178.2820, 2384.562
179.5050, 2270.926
180.7290, 2398.462
181.9520, 2293.174
183.1760, 2437.057
184.3990, 2575.115
185.6220, 2667.347
186.8450, 2772.752
188.0670, 2825.332
189.2900, 3071.087
190.5120, 3402.016
191.7340, 3827.118
192.9560, 4455.396
194.1780, 4952.660
195.4000, 5948.534
196.6220, 6723.679
197.8430, 7630.083
199.0640, 8184.527
200.2860, 8438.927
201.5070, 8475.665
202.7270, 8098.012
203.9480, 8430.042
205.1690, 6831.577
206.3890, 6467.049
207.6090, 6245.417
208.8290, 5927.124
210.0490, 6006.622
211.2690, 6193.832
212.4890, 6496.584
213.7080, 6794.087
214.9280, 7499.114
216.1470, 8173.635
217.3660, 8775.625
218.5850, 9592.066
219.8030, 10475.94
221.0220, 11225.94
222.2400, 12004.95
223.4590, 12221.15
224.6770, 12143.59
225.8950, 11613.52
227.1120, 10883.65
228.3300, 9654.208
229.5480, 8548.095
230.7650, 7525.528
231.9820, 6826.499
233.1990, 6284.841
234.4160, 5904.891
235.6330, 5814.013
236.8490, 5929.388
238.0660, 6179.011
239.2820, 6149.875
240.4980, 6114.970
241.7140, 5855.292
242.9300, 5453.833
244.1460, 4694.593
245.3610, 4592.563
246.5770, 4313.740
247.7920, 4091.120
249.0070, 3811.694
250.2220, 3714.463
251.4370, 3568.421
252.6510, 3540.564
253.8660, 3474.890
255.0800, 3694.395
256.2940, 3798.076
257.5080, 4267.929
258.7220, 5288.954
259.9360, 5621.146
261.1490, 6283.505
262.3630, 7524.025
263.5760, 9364.710
264.7890, 11628.55
266.0020, 14398.54
267.2150, 17385.70
268.4270, 21146.00
269.6400, 24598.46
270.8520, 27561.06
272.0640, 28553.79
273.2760, 27023.66
274.4880, 23757.64
275.7000, 19565.75
276.9120, 16187.98
278.1230, 13061.34
279.3340, 10660.82
280.5450, 8963.437
281.7560, 7740.178
282.9670, 6886.050
284.1780, 6371.051
285.3880, 6189.183
286.5980, 6041.438
287.8090, 6336.818
289.0190, 6979.317
290.2290, 7783.934
291.4380, 8441.666
292.6480, 9117.517
293.8570, 9739.485
295.0670, 9974.572
296.2760, 9962.778
297.4850, 9350.100
298.6930, 8680.542
299.9020, 7847.105
301.1110, 7270.789
302.3190, 6763.589
303.5270, 6370.511
304.7350, 5907.551
305.9430, 5523.713
307.1510, 5502.994
308.3580, 5434.396
309.5660, 5235.919
310.7730, 4965.563
311.9800, 4407.328
313.1870, 3964.213
314.3940, 3506.221
315.6010, 3238.349
316.8070, 3083.598
318.0130, 2864.969
319.2200, 2880.461
320.4260, 2649.076
321.6310, 2451.812
322.8370, 2225.668
324.0430, 1796.647
325.2480, 1593.747
326.4540, 1189.969
327.6590, 750.3120
328.8640, 521.7769
330.0680, 108.3638
331.2730, 261.9282
332.4780, 483.1616
333.6820, 587.3833
334.8860, 705.6162
336.0900, 729.8867
337.2940, 852.2007
338.4980, 713.5874
339.7010, 583.1948
340.9050, 480.1138
342.1080, 165.3857
343.3110, 1.125977
344.5140, 198.5991
345.7170, 236.1904
346.9200, 409.9580
348.1220, 392.9053
349.3240, 404.0332
350.5270, 483.3447
351.7290, 286.8408
352.9310, 324.5215
354.1320, 273.3955
355.3340, 225.4551
356.5350, 281.6934
357.7370, 279.1084
358.9380, 255.6924
360.1390, 248.4424
361.3400, 212.9219
362.5400, 155.4346
363.7410, 123.6729
364.9410, 26.92773
366.1410, 109.4072
367.3410, 315.7979
368.5410, 373.1836
369.7410, 515.5908
370.9400, 493.0811
372.1400, 475.6445
373.3390, 614.2754
374.5380, 462.0371
375.7370, 404.8613
376.9360, 245.7256
378.1350, 3.563477
379.3330, 303.7188
380.5310, 579.1465
381.7300, 1003.719
382.9280, 1614.436
384.1260, 1824.296
385.3230, 1870.300
386.5210, 2187.445
387.7180, 1893.732
388.9160, 1807.161
390.1130, 1509.730
391.3100, 1196.439
392.5060, 1028.288
393.7030, 869.2930
394.9000, 886.4014
396.0960, 742.6660
397.2920, 771.0684
398.4880, 836.5742
399.6840, 1098.282
400.8800, 1291.095
402.0750, 1551.043
403.2710, 2086.126
404.4660, 2505.346
405.6610, 3183.699
406.8560, 4054.188
408.0510, 5261.809
409.2450, 6648.564
410.4400, 8434.452
411.6340, 10817.48
412.8280, 13597.63
414.0220, 17039.92
415.2160, 20822.33
416.4100, 25550.88
417.6030, 30701.56
418.7970, 35357.38
419.9900, 38622.32
421.1830, 40328.39
422.3760, 39200.61
423.5690, 36442.96
424.7610, 33321.45
425.9540, 30136.09
427.1460, 27178.87
428.3380, 24578.83
429.5300, 22938.96
430.7220, 21562.28
431.9140, 20635.79
433.1050, 20368.49
434.2970, 20176.38
435.4880, 20209.46
436.6790, 21073.72
437.8700, 22247.19
439.0610, 24199.87
440.2510, 26744.77
441.4420, 30069.87
442.6320, 33548.17
443.8220, 37806.67
445.0120, 42083.38
446.2020, 45837.30
447.3910, 48574.41
448.5810, 50962.73
449.7700, 52521.30
450.9600, 53618.07
452.1490, 53560.05
453.3370, 51980.24
454.5260, 49016.66
455.7150, 44893.28
456.9030, 39874.10
458.0910, 35155.13
459.2800, 29883.34
460.4670, 25548.76
461.6550, 21582.37
462.8430, 18765.16
464.0300, 15804.17
465.2180, 13432.35
466.4050, 11618.71
467.5920, 9898.251
468.7790, 8529.972
469.9650, 7342.867
471.1520, 6444.942
472.3380, 5776.184
473.5250, 5009.594
474.7110, 4628.150
475.8970, 4238.693
477.0820, 3701.106
478.2680, 3756.287
479.4540, 3524.239
480.6390, 3340.640
481.8240, 3256.673
483.0090, 3219.823
484.1940, 3170.267
485.3780, 3285.321
486.5630, 3463.830
487.7470, 3727.043
488.9320, 3960.385
490.1160, 4201.897
491.3000, 4740.545
492.4830, 5309.318
493.6670, 5689.221
494.8500, 6118.246
496.0340, 6242.399
497.2170, 6547.676
498.4000, 6845.074
499.5820, 6785.589
500.7650, 7017.222
501.9480, 6881.968
503.1300, 7297.827
504.3120, 7539.801
505.4940, 7697.878
506.6760, 7902.068
507.8580, 7771.631
509.0390, 7721.697
510.2210, 8057.051
511.4020, 8142.629
512.5830, 8764.166
513.7640, 9557.947
514.9450, 10616.73
516.1250, 11867.59
517.3060, 12898.31
518.4860, 13538.04
519.6660, 13214.91
520.8460, 12759.75
522.0260, 11025.32
523.2060, 9331.981
524.3850, 7480.754
525.5650, 5941.629
526.7440, 4672.606
527.9230, 3778.684
529.1020, 2806.863
530.2810, 2406.142
531.4590, 1861.518
532.6380, 1584.992
533.8160, 1419.562
534.9940, 1325.229
536.1720, 1281.990
537.3500, 1227.845
538.5270, 1370.792
539.7050, 1520.831
540.8820, 1631.961
542.0590, 1882.180
543.2360, 2306.488
544.4130, 2550.884
545.5900, 3155.365
546.7660, 3770.935
547.9430, 4388.588
549.1190, 5308.325
550.2950, 6691.145
551.4710, 8183.047
552.6470, 10310.03
553.8220, 13386.09
554.9980, 16844.23
556.1730, 21247.45
557.3480, 26575.75
558.5230, 32651.12
559.6980, 38083.56
560.8730, 42101.09
562.0470, 41782.71
563.2220, 38526.86
564.3960, 32737.04
565.5700, 26544.88
566.7440, 21158.82
567.9170, 16968.88
569.0910, 13876.21
570.2640, 11868.93
571.4380, 10345.48
572.6110, 9679.496
573.7840, 9593.835
574.9570, 9624.711
576.1290, 9950.779
577.3020, 10890.87
578.4740, 11639.23
579.6460, 12605.19
580.8180, 13760.03
581.9900, 15159.95
583.1620, 16059.27
584.3330, 16962.91
585.5040, 17651.60
586.6760, 18682.57
587.8470, 19808.11
589.0180, 21297.33
590.1880, 23185.59
591.3590, 25257.31
592.5290, 26913.47
593.7000, 27966.83
594.8700, 28505.83
596.0400, 27954.07
597.2090, 26996.98
598.3790, 25276.36
599.5490, 23564.02
600.7180, 21686.19
601.8870, 19836.04
603.0560, 18147.13
604.2250, 17097.21
605.3940, 16128.84
606.5620, 15354.70
607.7300, 14413.41
608.8990, 13870.54
610.0670, 12879.98
611.2350, 12074.61
612.4020, 11234.66
613.5700, 10217.61
614.7370, 9054.449
615.9050, 8078.947
617.0720, 7088.596
618.2390, 6098.286
619.4060, 5371.000
620.5720, 4667.479
621.7390, 4037.603
622.9050, 3625.512
624.0710, 3139.553
625.2370, 2843.359
626.4030, 2580.306
627.5690, 2239.585
628.7340, 1955.244
629.9000, 1774.928
631.0650, 1557.572
632.2300, 1368.667
633.3950, 1172.292
634.5600, 1042.302
635.7240, 903.2783
636.8890, 880.9849
638.0530, 702.6377
639.2170, 745.4785
640.3810, 699.2842
641.5450, 643.9785
642.7080, 618.1953
643.8720, 430.6636
645.0350, 510.2661
646.1980, 339.4067
647.3610, 464.8115
648.5240, 301.4375
649.6870, 487.8652
650.8490, 459.8359
652.0120, 471.2026
653.1740, 476.6338
654.3360, 542.1235
655.4980, 461.6675
656.6600, 662.2959
657.8210, 583.9731
658.9830, 597.6875
660.1440, 722.4033
661.3050, 744.0732
662.4660, 754.6826
663.6270, 822.2310
664.7870, 779.7178
665.9480, 894.1411
667.1080, 845.5010
668.2680, 755.7964
669.4280, 1054.026
670.5880, 1016.190
671.7480, 1098.286
672.9070, 1242.314
674.0670, 1277.274
675.2260, 1407.165
676.3850, 1619.985
677.5440, 1645.735
678.7030, 1881.412
679.8610, 1947.018
681.0200, 2179.549
682.1780, 2381.007
683.3360, 2594.391
684.4940, 2626.697
685.6520, 2494.929
686.8090, 2423.083
687.9670, 2278.159
689.1240, 1916.157
690.2810, 1804.077
691.4380, 1462.916
692.5950, 1344.675
693.7520, 997.3525
694.9080, 825.9492
696.0650, 678.4624
697.2210, 475.8931
698.3770, 461.2402
699.5330, 358.5029
700.6880, 206.6807
701.8440, 83.77100
702.9990, 89.75830
704.1550, 63.64209
705.3100, 32.41650
706.4650, 33.06738
707.6190, 68.40625
708.7740, 24.05957
709.9290, 161.8711
711.0830, 86.91357
712.2370, 185.1494
713.3910, 95.63135
714.5450, 112.3145
715.6980, 142.2075
716.8520, 160.3281
718.0050, 215.6865
719.1580, 195.9688
720.3110, 227.1978
721.4640, 152.3584
722.6170, 187.7568
723.7700, 139.4111
724.9220, 206.2979
726.0740, 182.4521
727.2260, 271.8623
728.3780, 255.5752
729.5300, 182.5835
730.6810, 220.8486
731.8330, 255.3911
732.9840, 233.2290
734.1350, 189.3511
735.2860, 215.7349
736.4370, 175.3931
737.5880, 148.3062
738.7380, 220.4575
739.8880, 151.8862
741.0390, 156.5562
742.1890, 220.4688
743.3380, 102.6577
744.4880, 123.0596
745.6380, 137.6860
746.7870, 129.5430
747.9360, 119.6255
749.0850, 139.9282
750.2340, 100.1279
751.3830, 100.1484
752.5310, 52.14941
753.6800, 63.27832
754.8280, 81.59375
755.9760, 50.10400
757.1240, 49.86719
758.2720, 51.65771
759.4190, 0.7011720
760.5670, 34.89600
761.7140, 10.74072
762.8610, 49.76562
764.0080, 83.55371
765.1550, 13.24463
766.3020, 91.80469
767.4480, 104.2603
768.5950, 28.47705
769.7410, 50.08740
770.8870, 72.58008
772.0330, 43.95947
773.1780, 36.22217
774.3240, 54.36719
775.4690, 47.39893
776.6140, 96.31787
777.7590, 92.13184
778.9040, 93.84131
780.0490, 124.4468
781.1940, 96.95410
782.3380, 192.3594
783.4820, 107.6738
784.6260, 207.8887
785.7700, 145.0142
786.9140, 182.0474
788.0580, 98.99023
789.2010, 235.8389
790.3450, 212.5991
791.4880, 200.2725
792.6310, 206.8579
793.7730, 232.1650
794.9160, 328.7676
796.0590, 353.0923
797.2010, 359.3306
798.3430, 501.4824
799.4850, 515.5493
800.6270, 527.5312
801.7690, 607.9258
802.9100, 618.2422
804.0520, 686.9727
805.1930, 766.6216
806.3340, 784.1875
807.4750, 941.6729
808.6160, 927.0781
809.7560, 1095.403
810.8970, 1241.649
812.0370, 1305.817
813.1770, 1418.908
814.3170, 1685.922
815.4570, 1892.859
816.5960, 1991.722
817.7360, 2283.509
818.8750, 2585.222
820.0140, 2889.862
821.1530, 3217.428
822.2920, 3510.923
823.4310, 3735.348
824.5690, 4099.702
825.7070, 4286.985
826.8460, 4299.200
827.9840, 4537.348
829.1220, 4553.427
830.2590, 4419.440
831.3970, 4170.387
832.5340, 4149.268
833.6710, 3905.087
834.8080, 3889.841
835.9450, 3952.532
837.0820, 3682.161
838.2190, 3711.692
839.3550, 3699.719
840.4910, 3768.730
841.6270, 3908.083
842.7630, 3920.350
843.8990, 3999.510
845.0350, 4256.408
846.1700, 4465.921
847.3060, 4581.619
848.4410, 4923.864
849.5760, 5082.792
850.7100, 5630.194
851.8450, 5943.411
852.9800, 6291.621
854.1140, 6760.566
855.2480, 7203.917
856.3820, 7751.396
857.5160, 8301.814
858.6500, 8827.834
859.7830, 9242.545
860.9170, 9740.211
862.0500, 10129.60
863.1830, 10646.43
864.3160, 10988.59
865.4480, 11341.72
866.5810, 11466.39
867.7130, 11544.64
868.8460, 11682.69
869.9780, 11777.11
871.1100, 11627.29
872.2410, 11631.81
873.3730, 11809.87
874.5050, 12037.65
875.6360, 12086.93
876.7670, 12216.54
877.8980, 12300.90
879.0290, 12604.30
880.1590, 12627.15
881.2900, 12900.79
882.4200, 12912.59
883.5500, 12773.97
884.6800, 12730.07
885.8100, 12539.01
886.9400, 12360.55
888.0690, 12192.20
889.1990, 12156.97
890.3280, 12316.16
891.4570, 12661.35
892.5860, 12955.66
893.7140, 13588.10
894.8430, 14305.61
895.9710, 15503.45
897.1000, 16628.34
898.2280, 18157.26
899.3560, 19725.55
900.4830, 21386.79
901.6110, 23650.73
902.7380, 25835.33
903.8660, 28425.92
904.9930, 30749.58
906.1200, 33965.81
907.2460, 36720.50
908.3730, 39254.88
909.5000, 41165.24
910.6260, 43153.04
911.7520, 44093.87
912.8780, 44183.54
914.0040, 42750.27
915.1290, 40785.13
916.2550, 37677.50
917.3800, 33838.64
918.5050, 30634.66
919.6300, 26922.16
920.7550, 23674.42
921.8800, 20736.50
923.0040, 17915.84
924.1290, 15642.73
925.2530, 13720.35
926.3770, 11839.03
927.5010, 10440.79
928.6250, 9125.637
929.7480, 8113.569
930.8720, 7375.581
931.9950, 6627.686
933.1180, 5830.853
934.2410, 5328.098
935.3640, 4937.409
936.4860, 4485.786
937.6090, 4088.224
938.7310, 3929.740
939.8530, 3768.330
940.9750, 3479.993
942.0970, 3351.721
943.2180, 3278.519
944.3400, 3302.397
945.4610, 3265.354
946.5820, 3101.388
947.7030, 3071.509
948.8240, 3127.700
949.9450, 3248.960
951.0650, 3219.297
952.1860, 3395.706
953.3060, 3356.187
954.4260, 3320.749
955.5460, 3473.386
956.6650, 3503.097
957.7850, 3369.901
958.9040, 3433.779
960.0230, 3393.730
961.1420, 3261.760
962.2610, 3586.865
963.3800, 3602.044
964.4990, 3902.302
965.6170, 4150.644
966.7350, 4503.063
967.8530, 5209.563
968.9710, 6048.142
970.0890, 6952.796
971.2070, 8169.532
972.3240, 9369.350
973.4410, 10818.25
974.5580, 12206.25
975.6750, 13048.33
976.7920, 13613.51
977.9090, 13472.79
979.0250, 12822.17
980.1410, 11606.69
981.2580, 10437.31
982.3740, 8844.102
983.4890, 7617.021
984.6050, 6319.107
985.7200, 5387.330
986.8360, 4474.696
987.9510, 3858.216
989.0660, 3320.894
990.1810, 2818.743
991.2950, 2369.762
992.4100, 2086.958
993.5240, 1675.312
994.6390, 1470.834
995.7530, 1246.513
996.8660, 982.3657
997.9800, 930.3867
999.0940, 724.5991
1000.207, 421.9990
1001.320, 487.5664
1002.433, 320.3135
1003.546, 328.2480
1004.659, 385.3691
1005.772, 296.6616
1006.884, 425.1348
1007.996, 346.7769
1009.108, 419.5786
1010.220, 560.5591
1011.332, 647.7275
1012.444, 676.0420
1013.555, 818.5327
1014.666, 891.6138
1015.777, 1125.944
1016.888, 1178.239
1017.999, 1084.690
1019.110, 1370.288
1020.220, 1439.398
1021.331, 1584.674
1022.441, 1842.186
1023.551, 2255.665
1024.661, 2622.205
1025.770, 3064.394
1026.880, 3511.812
1027.989, 4094.668
1029.098, 4966.849
1030.207, 5764.090
1031.316, 6588.395
1032.425, 7600.776
1033.533, 8473.193
1034.642, 9404.659
1035.750, 9871.420
1036.858, 10672.53
1037.966, 10727.84
1039.073, 10895.82
1040.181, 10512.55
1041.288, 10200.42
1042.396, 9790.891
1043.503, 8807.234
1044.610, 8393.081
1045.716, 7683.724
1046.823, 7181.903
1047.929, 6755.464
1049.036, 6299.981
1050.142, 6103.806
1051.248, 6048.629
1052.353, 6149.998
1053.459, 6471.731
1054.564, 6822.858
1055.670, 7259.717
1056.775, 7657.865
1057.880, 7935.975
1058.985, 7826.485
1060.089, 7862.488
1061.194, 7572.253
1062.298, 7283.918
1063.402, 7090.092
1064.506, 6850.807
1065.610, 6797.438
1066.713, 7054.066
1067.817, 7356.601
1068.920, 7751.803
1070.023, 8457.395
1071.126, 9521.491
1072.229, 10410.80
1073.332, 11933.07
1074.435, 13599.91
1075.537, 15411.13
1076.639, 17746.98
1077.741, 20529.88
1078.843, 23739.98
1079.945, 27022.10
1081.046, 30281.77
1082.148, 32418.14
1083.249, 32702.81
1084.350, 31278.67
1085.451, 28284.07
1086.551, 24438.08
1087.652, 20200.99
1088.752, 16411.72
1089.853, 12866.03
1090.953, 10197.68
1092.053, 8173.376
1093.152, 6484.899
1094.252, 5402.691
1095.351, 4397.528
1096.451, 3644.576
1097.550, 3078.669
1098.649, 2793.639
1099.748, 2430.034
1100.846, 2060.090
1101.945, 1824.188
1103.043, 1547.327
1104.141, 1393.527
1105.239, 1235.234
1106.337, 1106.122
1107.434, 1004.420
1108.532, 952.1191
1109.629, 844.4932
1110.726, 766.9038
1111.823, 664.4863
1112.920, 635.9673
1114.017, 608.5806
1115.113, 588.5493
1116.210, 498.1440
1117.306, 432.7563
1118.402, 440.3984
1119.498, 400.0698
1120.593, 433.7690
1121.689, 388.4966
1122.784, 394.2505
1123.879, 287.0288
1124.974, 455.9248
1126.069, 341.9248
1127.164, 175.8271
1128.259, 371.8848
1129.353, 228.8047
1130.447, 313.7568
1131.541, 242.6836
1132.635, 267.6270
1133.729, 111.5854
1134.822, 127.5596
1135.916, 132.7129
1137.009, 109.7134
1138.102, 106.4634
1139.195, 88.53613
1140.288, 57.86572
1141.380, 35.90430
1142.473, 5.313965
1143.565, 50.63525
1144.657, 20.19385
1145.749, 62.64697
1146.841, 63.83105
1147.932, 18.44678
1149.024, 107.4116
1150.115, 104.9736
1151.206, 110.8599
1152.297, 85.60547
1153.388, 31.50684
1154.479, 54.40869
1155.569, 158.4731
1156.659, 126.6909
1157.750, 3.568848
1158.839, 183.2104
1159.929, 69.07520
1161.019, 213.1851
1162.108, 122.0786
1163.198, 118.6499
1164.287, 132.2900
1165.376, 110.5488
1166.465, 128.4023
1167.553, 76.22705
1168.642, 74.96973
1169.730, 64.27734
1170.818, 55.14502
1171.906, 89.73389
1172.994, 112.5972
1174.082, 171.1265
1175.170, 59.02344
1176.257, 135.0679
1177.344, 38.71875
1178.431, 41.76025
1179.518, 88.20068
1180.605, 38.28076
1181.691, 51.33838
1182.778, 39.62646
1183.864, 7.686035
1184.950, 92.94678
1186.036, 2.352539
1187.122, 85.36182
1188.207, 49.00732
1189.292, 38.36230
1190.378, 71.48975
1191.463, 63.99023
1192.548, 58.76221
1193.632, 15.48291
1194.717, 84.27295
1195.801, 65.78125
1196.886, 12.15918
1197.970, 48.71045
1199.054, 62.59326
1200.137, 129.3667
1201.221, 10.03906
1202.305, 27.54443
1203.388, 53.36426
1204.471, 120.4438
1205.554, 63.49561
1206.637, 32.57764
1207.719, 35.63818
1208.802, 56.27197
1209.884, 20.05176
1210.966, 104.4722
1212.048, 123.3115
1213.130, 84.87402
1214.212, 114.3662
1215.293, 143.7173
1216.374, 64.02734
1217.456, 128.2715
1218.536, 141.4692
1219.617, 27.62207
1220.698, 163.6899
1221.778, 170.7144
1222.859, 131.6958
1223.939, 185.6245
1225.019, 184.5103
1226.099, 167.3506
1227.178, 101.1436
1228.258, 259.8716
1229.337, 167.5532
1230.417, 252.1851
1231.496, 219.7710
1232.574, 223.3101
1233.653, 153.8018
1234.732, 179.2363
1235.810, 175.6182
1236.888, 273.9453
1237.966, 153.2236
1239.044, 261.4399
1240.122, 251.6074
1241.199, 169.7256
1242.277, 324.7827
1243.354, 231.7900
1244.431, 210.7451
1245.508, 251.6455
1246.585, 279.4941
1247.661, 268.2915
1248.738, 310.1074
1249.814, 287.7300
1250.890, 315.3711
1251.966, 301.9590
1253.042, 290.7651
1254.117, 266.9771
1255.193, 260.4053
1256.268, 279.7778
1257.343, 265.0957
1258.418, 292.3574
1259.493, 292.6753
1260.567, 316.1860
1261.642, 311.8140
1262.716, 315.8564
1263.790, 338.9795
1264.864, 222.0005
1265.938, 389.8662
1267.011, 247.7837
1268.085, 276.5312
1269.158, 379.2188
1270.231, 345.8545
1271.304, 224.6323
1272.377, 353.1177
1273.450, 256.5615
1274.522, 317.9482
1275.594, 315.8335
1276.666, 342.7744
1277.738, 345.2812
1278.810, 282.5410
1279.882, 312.2900
1280.953, 289.4468
1282.025, 231.1294
1283.096, 303.2275
1284.167, 327.5435
1285.238, 370.9487
1286.308, 275.5972
1287.379, 257.1914
1288.449, 261.3340
1289.519, 281.1948
1290.589, 242.2300
1291.659, 322.2144
1292.729, 357.0435
1293.798, 242.2427
1294.868, 205.1162
1295.937, 299.9312
1297.006, 237.2251
1298.075, 230.3901
1299.143, 265.9297
1300.212, 221.8389
1301.280, 241.6489
1302.348, 195.8086
1303.416, 208.1250
1304.484, 215.9771
1305.552, 167.2188
1306.620, 189.8145
1307.687, 232.0469
1308.754, 174.3530
1309.821, 165.3779
1310.888, 116.4326
1311.955, 150.3428
1313.021, 106.5845
1314.088, 157.5391
1315.154, 126.8364
1316.220, 157.7358
1317.286, 146.1709
1318.352, 99.21631
1319.417, 122.2539
1320.483, 128.5449
1321.548, 113.9536
1322.613, 110.8672
1323.678, 106.9360
1324.743, 104.3940
1325.807, 108.2446
1326.872, 103.8550
1327.936, 107.8994
1329.000, 113.4834
1330.064, 118.5762
1331.128, 90.49609
1332.191, 153.4360
1333.255, 151.8247
1334.318, 139.8428
1335.381, 65.25488
1336.444, 79.54199
1337.507, 68.33887
1338.569, 79.07666
1339.632, 121.7227
1340.694, 161.6875
1341.756, 164.6709
1342.818, 256.8774
1343.880, 192.8521
1344.941, 192.2295
1346.003, 233.7197
1347.064, 192.5366
1348.125, 213.6494
1349.186, 295.4360
1350.247, 198.1855
1351.308, 385.1182
1352.368, 319.7944
1353.428, 294.4336
1354.489, 224.8691
1355.549, 327.2690
1356.608, 337.8008
1357.668, 351.9136
1358.727, 345.4795
1359.787, 388.9023
1360.846, 354.2896
1361.905, 388.6206
1362.964, 232.4521
1364.022, 293.1045
1365.081, 309.3452
1366.139, 398.1890
1367.197, 330.3608
1368.255, 294.4980
1369.313, 255.4658
1370.371, 285.5361
1371.428, 346.4746
1372.486, 265.0566
1373.543, 251.0103
1374.600, 330.9468
1375.657, 225.8521
1376.713, 261.7256
1377.770, 239.5684
1378.826, 310.3799
1379.882, 226.1602
1380.938, 219.9106
1381.994, 215.5366
1383.050, 249.0479
1384.106, 165.6499
1385.161, 257.0894
1386.216, 180.6582
1387.271, 182.1860
1388.326, 180.7300
1389.381, 152.0972
1390.435, 116.7358
1391.490, 127.1982
1392.544, 150.4688
1393.598, 119.8794
1394.652, 174.5259
1395.705, 174.5361
1396.759, 140.8711
1397.812, 92.18164
1398.866, 143.1045
1399.919, 144.3657
1400.972, 168.8242
1402.024, 182.0342
1403.077, 83.11230
1404.129, 35.28564
1405.181, 49.32422
1406.233, 148.1450
1407.285, 87.13916
1408.337, 107.9521
1409.389, 166.9404
1410.440, 96.84229
1411.491, 77.91016
1412.542, 201.0796
1413.593, 94.91211
1414.644, 112.3857
1415.695, 180.0171
1416.745, 72.85303
1417.795, 83.39648
1418.845, 116.2275
1419.895, 46.41064
1420.945, 106.3159
1421.995, 60.68359
1423.044, 110.8774
1424.093, 109.7148
1425.142, 157.5220
1426.191, 86.61182
1427.240, 84.37695
1428.289, 123.3608
1429.337, 124.9492
1430.385, 130.8267
1431.433, 63.79883
1432.481, 96.30420
1433.529, 132.4839
1434.577, 112.6587
1435.624, 159.6934
1436.672, 144.3633
1437.719, 25.20703
1438.766, 81.76904
1439.812, 58.48340
1440.859, 45.27148
1441.905, 74.52490
1442.952, 74.98779
1443.998, 85.72656
1445.044, 120.1411
1446.090, 107.5225
1447.135, 137.0522
1448.181, 148.3794
1449.226, 87.57520
1450.271, 133.6509
1451.316, 137.8423
1452.361, 103.1299
1453.405, 57.28662
1454.450, 92.44531
1455.494, 97.30957
1456.538, 64.60449
1457.582, 141.8398
1458.626, 107.1348
1459.670, 103.6299
1460.713, 100.1221
1461.757, 53.61133
1462.800, 89.09375
1463.843, 143.5562
1464.886, 123.9917
1465.928, 133.4243
1466.971, 73.83496
1468.013, 179.2192
1469.055, 111.5938
1470.097, 148.9561
1471.139, 123.3105
1472.181, 31.65137
1473.222, 132.9790
1474.263, 207.2944
1475.305, 109.5928
1476.346, 176.8740
1477.386, 145.1392
1478.427, 124.3906
1479.468, 88.63135
1480.508, 100.8638
1481.548, 65.96143
1482.588, 117.1099
1483.628, 28.19385
1484.668, 74.25244
1485.707, 75.45752
1486.747, 211.3799
1487.786, 148.5991
1488.825, 181.5117
1489.864, 164.1001
1490.902, 133.0430
1491.941, 184.1313
1492.979, 132.8857
1494.017, 95.93408
1495.055, 46.11816
1496.093, 72.80859
1497.131, 152.5254
1498.168, 155.3643
1499.206, 192.5889
1500.243, 262.6792
1501.280, 200.7632
1502.317, 161.0063
1503.354, 177.9521
1504.390, 143.1880
1505.426, 123.4277
1506.463, 119.8838
1507.499, 107.5264
1508.535, 135.5669
1509.570, 90.84570
1510.606, 162.1816
1511.641, 197.5464
1512.676, 101.9492
1513.711, 113.2080
1514.746, 111.6704
1515.781, 99.10986
1516.816, 122.6416
1517.850, 147.0195
1518.884, 194.5405
1519.918, 92.05957
1520.952, 54.57568
1521.986, 150.0933
1523.019, 39.29443
1524.053, 194.8076
1525.086, 103.3242
1526.119, 9.845703
1527.152, 142.3735
1528.185, 140.9121
1529.217, 116.1631
1530.250, 84.72607
1531.282, 68.30615
1532.314, 77.94678
1533.346, 19.61523
1534.377, 50.31104
1535.409, 25.04590
1536.440, 23.82080
1537.472, 11.62451
1538.503, 62.45947
1539.534, 171.3262
1540.564, 189.2583
1541.595, 167.5391
1542.625, 13.74414
1543.656, 88.30664
1544.686, 3.393066
1545.716, 16.51318
1546.745, 134.6699
1547.775, 64.86523
1548.804, 58.11719
1549.834, 136.8867
1550.863, 163.2197
1551.892, 213.6265
1552.920, 268.0972
1553.949, 235.2588
1554.977, 244.3110
1556.006, 133.2573
1557.034, 15.09180
1558.062, 137.1616
1559.089, 3.090820
1560.117, 61.54883
1561.144, 104.7148
1562.172, 126.8599
1563.199, 72.89648
1564.226, 54.82861
1565.252, 72.42432
1566.279, 0.3212890
1567.305, 75.60156
1568.332, 9.590820
1569.358, 27.50244
1570.384, 7.895508
1571.409, 1.568359
1572.435, 0.0000000E+00
##END=



