##NAMES=Epidote
##RRUFFID=R050191
##IDEAL CHEMISTRY=Ca_2_Fe^3+^Al_2_(Si_2_O_7_)(SiO_4_)O(OH)
##LOCALITY=Pampa Blanca, Castrovirreyna Province, Huancavelica Department, Peru
##OWNER=RRUFF
##SOURCE=Dave Bunk Minerals
##DESCRIPTION=Cluster of green elongated prismatic crystals
##STATUS=The identification of this mineral has been confirmed by X-ray diffraction and chemical analysis
##URL=rruff.info/R050191
##MEASURED CHEMISTRY=Ca_2.00_Al_2.00_(Fe^3+^_0.84_Al_0.16_)(SiO_4_)(Si_2_O_7_)O(OH)
##PIN_ID=L00883
##ORIENTATION=Laser parallel to (1 0 1). Fiducial mark perpendicular to laser is parallel to b [0 1 0]
53.91000, 0.0000000E+00
55.14900, 52.60480
56.38700, 58.80231
57.62600, 102.0106
58.86400, 138.4699
60.10300, 201.9546
61.34100, 136.8201
62.57900, 85.56836
63.81700, 17.55197
65.05400, 21.43628
66.29200, 41.62769
67.52900, 32.24426
68.76700, 10.50916
70.00400, 80.44568
71.24100, 71.39636
72.47700, 30.21216
73.71400, 94.76562
74.95100, 199.9301
76.18700, 360.5826
77.42300, 411.6219
78.65900, 619.9661
79.89500, 893.5383
81.13100, 1248.267
82.36700, 1680.794
83.60200, 2314.928
84.83700, 2772.742
86.07200, 3386.473
87.30800, 4120.075
88.54200, 4678.503
89.77700, 5125.724
91.01200, 5323.737
92.24600, 5340.503
93.48000, 5223.951
94.71400, 4975.021
95.94800, 4637.664
97.18200, 4268.844
98.41600, 4083.559
99.64900, 3815.827
100.8830, 3618.661
102.1160, 3350.039
103.3490, 3265.933
104.5820, 3226.315
105.8150, 3270.161
107.0470, 3786.450
108.2800, 3386.673
109.5120, 3773.287
110.7440, 2940.802
111.9760, 2712.696
113.2080, 2621.956
114.4400, 2812.569
115.6710, 2835.528
116.9030, 2812.821
118.1340, 2779.438
119.3650, 2803.372
120.5960, 2754.616
121.8270, 2770.816
123.0580, 2761.265
124.2880, 2771.133
125.5190, 2750.769
126.7490, 2718.113
127.9790, 2708.629
129.2090, 2794.490
130.4390, 2739.220
131.6680, 2829.955
132.8980, 2810.693
134.1270, 2707.402
135.3560, 2673.130
136.5850, 2513.934
137.8140, 2525.829
139.0430, 2547.829
140.2710, 2391.062
141.5000, 2345.722
142.7280, 2239.868
143.9560, 2246.629
145.1840, 2229.031
146.4120, 2398.866
147.6390, 2365.896
148.8670, 2363.019
150.0940, 2400.231
151.3210, 2421.536
152.5490, 2320.937
153.7750, 2140.438
155.0020, 2076.041
156.2290, 2010.748
157.4550, 1994.560
158.6810, 1925.481
159.9080, 1905.512
161.1340, 1928.654
162.3590, 1795.909
163.5850, 1871.277
164.8110, 1902.759
166.0360, 1765.356
167.2610, 1775.069
168.4860, 1777.899
169.7110, 1694.845
170.9360, 1667.671
172.1610, 1581.091
173.3850, 1533.393
174.6100, 1499.812
175.8340, 1426.351
177.0580, 1345.009
178.2820, 1350.786
179.5050, 1279.683
180.7290, 1327.699
181.9520, 1254.835
183.1760, 1397.091
184.3990, 1551.466
185.6220, 1515.962
186.8450, 1779.578
188.0670, 1831.314
189.2900, 2078.171
190.5120, 2297.150
191.7340, 2641.249
192.9560, 2962.469
194.1780, 3251.810
195.4000, 3492.074
196.6220, 3757.020
197.8430, 4002.769
199.0640, 4250.195
200.2860, 4606.991
201.5070, 4737.080
202.7270, 4961.494
203.9480, 4924.752
205.1690, 4906.844
206.3890, 4597.813
207.6090, 4321.477
208.8290, 3938.070
210.0490, 3609.879
211.2690, 3344.059
212.4890, 3053.380
213.7080, 2932.786
214.9280, 2734.904
216.1470, 2737.497
217.3660, 2808.334
218.5850, 2730.405
219.8030, 2875.703
221.0220, 2948.221
222.2400, 2884.949
223.4590, 2899.324
224.6770, 3014.169
225.8950, 3062.196
227.1120, 3174.604
228.3300, 3350.465
229.5480, 3370.484
230.7650, 3492.183
231.9820, 3923.486
233.1990, 4026.917
234.4160, 4233.423
235.6330, 4442.558
236.8490, 4426.164
238.0660, 4830.622
239.2820, 4881.478
240.4980, 5076.839
241.7140, 5381.226
242.9300, 5336.747
244.1460, 5572.399
245.3610, 5566.180
246.5770, 5333.090
247.7920, 4867.123
249.0070, 4348.281
250.2220, 3781.558
251.4370, 3280.955
252.6510, 3043.469
253.8660, 2788.098
255.0800, 2665.842
256.2940, 2619.698
257.5080, 2931.665
258.7220, 3086.169
259.9360, 3737.927
261.1490, 3997.221
262.3630, 4687.619
263.5760, 5677.123
264.7890, 6946.730
266.0020, 8272.440
267.2150, 9390.252
268.4270, 10280.17
269.6400, 10882.18
270.8520, 11521.29
272.0640, 12138.50
273.2760, 12930.80
274.4880, 13806.19
275.7000, 14680.68
276.9120, 14747.26
278.1230, 14249.93
279.3340, 12906.70
280.5450, 11070.56
281.7560, 9120.521
282.9670, 7598.572
284.1780, 6368.721
285.3880, 5915.963
286.5980, 5724.300
287.8090, 5880.729
289.0190, 5981.250
290.2290, 6265.857
291.4380, 6616.553
292.6480, 6863.334
293.8570, 7007.201
295.0670, 7243.151
296.2760, 7484.187
297.4850, 7443.307
298.6930, 7804.513
299.9020, 7885.804
301.1110, 7600.183
302.3190, 7198.645
303.5270, 6464.193
304.7350, 5720.828
305.9430, 4870.548
307.1510, 4132.355
308.3580, 3567.249
309.5660, 2961.229
310.7730, 2540.081
311.9800, 2189.449
313.1870, 1912.688
314.3940, 1638.017
315.6010, 1531.432
316.8070, 1430.935
318.0130, 1261.524
319.2200, 1097.202
320.4260, 997.9668
321.6310, 956.8193
322.8370, 848.7598
324.0430, 748.6133
325.2480, 614.9043
326.4540, 522.1084
327.6590, 393.4004
328.8640, 277.7808
330.0680, 203.3994
331.2730, 86.80469
332.4780, 45.44775
333.6820, 11.17920
334.8860, 83.00488
336.0900, 92.33252
337.2940, 224.1675
338.4980, 131.1733
339.7010, 141.1206
340.9050, 131.0317
342.1080, 41.95068
343.3110, 45.85254
344.5140, 69.28223
345.7170, 1.508789
346.9200, 151.8027
348.1220, 180.2271
349.3240, 105.7651
350.5270, 202.4175
351.7290, 157.1855
352.9310, 88.07080
354.1320, 124.0737
355.3340, 187.1934
356.5350, 127.4331
357.7370, 163.7974
358.9380, 198.2856
360.1390, 200.8911
361.3400, 198.6064
362.5400, 140.4321
363.7410, 140.7144
364.9410, 104.6196
366.1410, 85.55859
367.3410, 5.814941
368.5410, 51.83105
369.7410, 185.3999
370.9400, 210.9434
372.1400, 277.4712
373.3390, 237.0127
374.5380, 326.5522
375.7370, 335.1270
376.9360, 473.7412
378.1350, 392.4541
379.3330, 342.2314
380.5310, 289.0532
381.7300, 92.89648
382.9280, 98.68408
384.1260, 16.58252
385.3230, 26.94434
386.5210, 42.40234
387.7180, 131.9604
388.9160, 244.6177
390.1130, 225.3740
391.3100, 423.2280
392.5060, 443.1807
393.7030, 533.2314
394.9000, 656.3799
396.0960, 687.6260
397.2920, 651.9688
398.4880, 819.4082
399.6840, 872.9443
400.8800, 1039.577
402.0750, 1176.306
403.2710, 1427.130
404.4660, 1730.050
405.6610, 1910.066
406.8560, 2563.176
408.0510, 2959.382
409.2450, 3898.682
410.4400, 4600.077
411.6340, 6005.566
412.8280, 7383.149
414.0220, 9275.825
415.2160, 11299.60
416.4100, 13347.46
417.6030, 15061.42
418.7970, 16978.46
419.9900, 18693.61
421.1830, 20354.84
422.3760, 21988.17
423.5690, 23651.59
424.7610, 25464.11
425.9540, 25887.70
427.1460, 25655.40
428.3380, 24790.19
429.5300, 23192.06
430.7220, 21708.06
431.9140, 20185.18
433.1050, 19491.42
434.2970, 19120.76
435.4880, 19625.24
436.6790, 20474.84
437.8700, 22079.57
439.0610, 24154.44
440.2510, 26647.44
441.4420, 29450.55
442.6320, 32737.80
443.8220, 36345.19
445.0120, 39973.71
446.2020, 44229.39
447.3910, 48433.23
448.5810, 51959.22
449.7700, 55073.35
450.9600, 57231.61
452.1490, 58395.04
453.3370, 58748.61
454.5260, 58205.82
455.7150, 56723.02
456.9030, 54443.25
458.0910, 51140.42
459.2800, 46993.73
460.4670, 42016.20
461.6550, 37036.82
462.8430, 31469.56
464.0300, 26557.46
465.2180, 22347.51
466.4050, 18625.68
467.5920, 15720.99
468.7790, 13159.43
469.9650, 11388.00
471.1520, 9667.689
472.3380, 8323.491
473.5250, 7168.389
474.7110, 6392.382
475.8970, 5743.458
477.0820, 5198.550
478.2680, 4924.183
479.4540, 4493.486
480.6390, 4198.870
481.8240, 3932.590
483.0090, 4073.906
484.1940, 3913.745
485.3780, 3938.456
486.5630, 3773.067
487.7470, 4075.933
488.9320, 4057.337
490.1160, 4343.355
491.3000, 4531.450
492.4830, 4561.621
493.6670, 4917.865
494.8500, 5129.184
496.0340, 5193.577
497.2170, 5300.042
498.4000, 5205.581
499.5820, 5444.193
500.7650, 5287.878
501.9480, 5252.661
503.1300, 4762.518
504.3120, 4612.447
505.4940, 4235.462
506.6760, 3941.552
507.8580, 3744.718
509.0390, 3477.982
510.2210, 3211.893
511.4020, 3158.619
512.5830, 2951.438
513.7640, 2748.141
514.9450, 2434.649
516.1250, 2270.258
517.3060, 2190.427
518.4860, 1932.227
519.6660, 1881.130
520.8460, 1833.181
522.0260, 1747.827
523.2060, 1644.218
524.3850, 1499.972
525.5650, 1348.538
526.7440, 1085.804
527.9230, 936.2480
529.1020, 664.7593
530.2810, 298.3359
531.4590, 137.9785
532.6380, 125.6865
533.8160, 122.4580
534.9940, 89.29395
536.1720, 116.1924
537.3500, 88.15332
538.5270, 219.1763
539.7050, 345.2607
540.8820, 478.4062
542.0590, 534.6108
543.2360, 781.8760
544.4130, 987.1997
545.5900, 1215.581
546.7660, 1635.021
547.9430, 1938.518
549.1190, 2468.070
550.2950, 3228.679
551.4710, 4320.343
552.6470, 5478.062
553.8220, 7180.835
554.9980, 9428.662
556.1730, 11815.54
557.3480, 14153.47
558.5230, 15981.46
559.6980, 17370.49
560.8730, 19134.57
562.0470, 20382.71
563.2220, 21728.89
564.3960, 22858.12
565.5700, 23039.40
566.7440, 21745.73
567.9170, 19151.10
569.0910, 15693.52
570.2640, 12270.61
571.4380, 9710.950
572.6110, 7701.355
573.7840, 6678.494
574.9570, 6075.829
576.1290, 5825.031
577.3020, 6025.972
578.4740, 6060.183
579.6460, 6410.956
580.8180, 7037.640
581.9900, 7628.533
583.1620, 8280.830
584.3330, 8937.699
585.5040, 9676.033
586.6760, 10619.12
587.8470, 11436.58
589.0180, 12393.74
590.1880, 13413.94
591.3590, 14163.09
592.5290, 15002.41
593.7000, 15738.02
594.8700, 16348.48
596.0400, 17000.36
597.2090, 17563.87
598.3790, 17611.42
599.5490, 17507.79
600.7180, 16741.68
601.8870, 15849.06
603.0560, 14877.16
604.2250, 13687.78
605.3940, 12688.55
606.5620, 11759.09
607.7300, 10905.18
608.8990, 10149.26
610.0670, 9557.773
611.2350, 8870.049
612.4020, 8400.109
613.5700, 7946.668
614.7370, 7299.589
615.9050, 6627.359
617.0720, 6158.891
618.2390, 5369.758
619.4060, 4813.707
620.5720, 4134.005
621.7390, 3620.342
622.9050, 3194.699
624.0710, 2828.077
625.2370, 2369.476
626.4030, 2166.876
627.5690, 1853.279
628.7340, 1605.672
629.9000, 1452.060
631.0650, 1225.436
632.2300, 1097.800
633.3950, 990.3232
634.5600, 960.4927
635.7240, 820.8193
636.8890, 764.1318
638.0530, 661.5381
639.2170, 690.9531
640.3810, 561.6050
641.5450, 522.3730
642.7080, 400.3677
643.8720, 431.4385
645.0350, 304.6821
646.1980, 360.8794
647.3610, 396.9038
648.5240, 393.9131
649.6870, 321.7769
650.8490, 346.5034
652.0120, 249.4858
653.1740, 186.9194
654.3360, 243.4365
655.4980, 414.8564
656.6600, 318.5703
657.8210, 428.4512
658.9830, 364.8960
660.1440, 273.4092
661.3050, 429.9492
662.4660, 460.6167
663.6270, 382.1372
664.7870, 502.6709
665.9480, 452.1475
667.1080, 447.5967
668.2680, 501.0166
669.4280, 569.4058
670.5880, 600.7637
671.7480, 672.0903
672.9070, 678.3848
674.0670, 785.6470
675.2260, 987.8755
676.3850, 1068.071
677.5440, 1261.232
678.7030, 1503.360
679.8610, 1596.453
681.0200, 1839.510
682.1780, 2044.532
683.3360, 2234.518
684.4940, 2452.468
685.6520, 2514.380
686.8090, 2664.256
687.9670, 2643.095
689.1240, 2709.895
690.2810, 2560.657
691.4380, 2383.380
692.5950, 2056.064
693.7520, 1901.709
694.9080, 1598.314
696.0650, 1319.880
697.2210, 1117.405
698.3770, 942.8887
699.5330, 760.7002
700.6880, 667.7339
701.8440, 509.0938
702.9990, 440.4111
704.1550, 398.6865
705.3100, 337.9189
706.4650, 267.1084
707.6190, 219.2549
708.7740, 141.3574
709.9290, 1.409668
711.0830, 15.63037
712.2370, 61.21094
713.3910, 83.96484
714.5450, 92.36182
715.6980, 20.83008
716.8520, 58.40234
718.0050, 114.0996
719.1580, 63.95068
720.3110, 6.9824003E-02
721.4640, 72.00537
722.6170, 112.2129
723.7700, 103.0146
724.9220, 162.0889
726.0740, 151.7827
727.2260, 114.6533
728.3780, 178.6802
729.5300, 113.8970
730.6810, 132.2710
731.8330, 168.8101
732.9840, 150.5347
734.1350, 141.4346
735.2860, 167.5049
736.4370, 152.6733
737.5880, 134.1880
738.7380, 158.7832
739.8880, 135.5566
741.0390, 147.4961
742.1890, 140.6069
743.3380, 159.8848
744.4880, 93.34033
745.6380, 134.9365
746.7870, 74.69531
747.9360, 109.5850
749.0850, 93.62158
750.2340, 27.79736
751.3830, 10.92383
752.5310, 22.56348
753.6800, 143.1284
754.8280, 77.64111
755.9760, 126.0952
757.1240, 117.4976
758.2720, 235.8462
759.4190, 256.1489
760.5670, 404.4072
761.7140, 417.6191
762.8610, 440.7861
764.0080, 384.9077
765.1550, 592.9839
766.3020, 555.0146
767.4480, 614.0020
768.5950, 504.9438
769.7410, 516.8423
770.8870, 468.6963
772.0330, 389.5078
773.1780, 364.2754
774.3240, 296.4160
775.4690, 150.6816
776.6140, 142.3193
777.7590, 100.9131
778.9040, 61.53857
780.0490, 53.91357
781.1940, 43.31592
782.3380, 27.33057
783.4820, 23.94873
784.6260, 10.82275
785.7700, 77.65674
786.9140, 61.58740
788.0580, 45.60449
789.2010, 51.69971
790.3450, 5.873535
791.4880, 31.10156
792.6310, 47.39502
793.7730, 38.23730
794.9160, 19.82715
796.0590, 80.37158
797.2010, 77.87598
798.3430, 81.34131
799.4850, 57.76709
800.6270, 97.15234
801.7690, 88.49951
802.9100, 146.8076
804.0520, 224.0796
805.1930, 196.3149
806.3340, 211.5142
807.4750, 378.6772
808.6160, 275.8057
809.7560, 389.8989
810.8970, 249.9575
812.0370, 417.9824
813.1770, 351.9746
814.3170, 396.9336
815.4570, 485.8599
816.5960, 535.7539
817.7360, 596.6172
818.8750, 710.4482
820.0140, 708.2485
821.1530, 807.0190
822.2920, 836.7593
823.4310, 913.7217
824.5690, 990.1523
825.7070, 1108.806
826.8460, 1189.432
827.9840, 1352.029
829.1220, 1437.599
830.2590, 1358.143
831.3970, 1568.661
832.5340, 1583.152
833.6710, 1410.619
834.8080, 1452.060
835.9450, 1416.478
837.0820, 1513.871
838.2190, 1495.241
839.3550, 1296.589
840.4910, 1415.914
841.6270, 1349.216
842.7630, 1601.498
843.8990, 1541.758
845.0350, 1617.998
846.1700, 1797.596
847.3060, 1963.964
848.4410, 1924.294
849.5760, 2189.917
850.7100, 2318.367
851.8450, 2565.976
852.9800, 2832.869
854.1140, 3159.518
855.2480, 3333.630
856.3820, 3576.854
857.5160, 4020.894
858.6500, 4421.554
859.7830, 4850.666
860.9170, 5149.336
862.0500, 5644.284
863.1830, 5892.872
864.3160, 6311.787
865.4480, 6680.685
866.5810, 6886.660
867.7130, 7141.494
868.8460, 7424.054
869.9780, 7513.788
871.1100, 7657.122
872.2410, 7886.857
873.3730, 7966.563
874.5050, 7772.479
875.6360, 7742.908
876.7670, 7777.848
877.8980, 7883.106
879.0290, 7864.868
880.1590, 7725.496
881.2900, 7663.382
882.4200, 7585.752
883.5500, 7518.997
884.6800, 7283.153
885.8100, 7106.417
886.9400, 6829.917
888.0690, 6507.964
889.1990, 6075.686
890.3280, 5861.644
891.4570, 5668.773
892.5860, 5395.656
893.7140, 5310.499
894.8430, 5201.060
895.9710, 5257.676
897.1000, 5505.324
898.2280, 5577.017
899.3560, 6126.750
900.4830, 6397.518
901.6110, 6886.334
902.7380, 7671.208
903.8660, 8271.125
904.9930, 8816.087
906.1200, 9491.093
907.2460, 10380.13
908.3730, 11119.21
909.5000, 11980.33
910.6260, 12556.51
911.7520, 12795.62
912.8780, 13265.75
914.0040, 13136.68
915.1290, 12960.51
916.2550, 12635.15
917.3800, 11941.75
918.5050, 11256.23
919.6300, 10249.79
920.7550, 9183.549
921.8800, 8115.357
923.0040, 7032.343
924.1290, 6213.507
925.2530, 5417.452
926.3770, 4732.009
927.5010, 3993.557
928.6250, 3459.285
929.7480, 2995.805
930.8720, 2622.266
931.9950, 2314.272
933.1180, 2138.350
934.2410, 1833.506
935.3640, 1755.627
936.4860, 1623.981
937.6090, 1476.376
938.7310, 1402.881
939.8530, 1298.526
940.9750, 1164.043
942.0970, 1149.711
943.2180, 1143.450
944.3400, 1085.257
945.4610, 1043.147
946.5820, 1146.090
947.7030, 1229.098
948.8240, 1123.173
949.9450, 1126.300
951.0650, 1267.484
952.1860, 1376.720
953.3060, 1338.010
954.4260, 1472.352
955.5460, 1464.746
956.6650, 1545.195
957.7850, 1552.700
958.9040, 1763.260
960.0230, 1701.883
961.1420, 1780.566
962.2610, 1851.304
963.3800, 2085.105
964.4990, 2154.962
965.6170, 2388.878
966.7350, 2482.854
967.8530, 3074.889
968.9710, 3605.989
970.0890, 3984.145
971.2070, 4764.366
972.3240, 5487.645
973.4410, 6575.980
974.5580, 7326.374
975.6750, 8183.824
976.7920, 8948.332
977.9090, 9627.898
979.0250, 9937.533
980.1410, 9924.224
981.2580, 9709.979
982.3740, 8989.820
983.4890, 8183.745
984.6050, 7316.767
985.7200, 6041.870
986.8360, 5058.079
987.9510, 4297.380
989.0660, 3523.783
990.1810, 2997.298
991.2950, 2547.919
992.4100, 2057.625
993.5240, 1688.440
994.6390, 1603.373
995.7530, 1131.421
996.8660, 1163.598
997.9800, 950.9028
999.0940, 950.3232
1000.207, 840.8799
1001.320, 664.5513
1002.433, 698.3433
1003.546, 539.2676
1004.659, 526.3174
1005.772, 593.4897
1006.884, 349.7915
1007.996, 497.2183
1009.108, 522.7656
1010.220, 574.4482
1011.332, 540.2515
1012.444, 643.3184
1013.555, 603.4487
1014.666, 861.9180
1015.777, 959.1406
1016.888, 899.8965
1017.999, 1096.715
1019.110, 1196.775
1020.220, 1029.603
1021.331, 1184.936
1022.441, 1347.717
1023.551, 1449.789
1024.661, 1551.004
1025.770, 1749.337
1026.880, 1961.641
1027.989, 2383.854
1029.098, 2624.054
1030.207, 3075.177
1031.316, 3460.628
1032.425, 4027.011
1033.533, 4563.721
1034.642, 5100.748
1035.750, 5578.880
1036.858, 6129.250
1037.966, 6500.809
1039.073, 6650.093
1040.181, 6932.943
1041.288, 6734.365
1042.396, 6659.323
1043.503, 6362.174
1044.610, 6167.821
1045.716, 5661.943
1046.823, 5455.801
1047.929, 4945.067
1049.036, 4610.973
1050.142, 4379.779
1051.248, 4182.438
1052.353, 4170.753
1053.459, 4125.103
1054.564, 4319.470
1055.670, 4465.604
1056.775, 4608.184
1057.880, 4891.056
1058.985, 5056.698
1060.089, 5203.789
1061.194, 5391.795
1062.298, 5397.972
1063.402, 5380.303
1064.506, 5308.498
1065.610, 5058.372
1066.713, 4927.964
1067.817, 4791.321
1068.920, 4864.103
1070.023, 5132.793
1071.126, 5498.533
1072.229, 5861.727
1073.332, 6663.234
1074.435, 7465.576
1075.537, 8428.924
1076.639, 9806.869
1077.741, 10883.88
1078.843, 12700.11
1079.945, 14514.79
1081.046, 16389.97
1082.148, 18118.92
1083.249, 19219.04
1084.350, 20153.92
1085.451, 20436.85
1086.551, 20294.89
1087.652, 19166.88
1088.752, 17162.93
1089.853, 14674.61
1090.953, 11907.76
1092.053, 9460.217
1093.152, 7395.243
1094.252, 5757.453
1095.351, 4442.710
1096.451, 3484.970
1097.550, 2650.799
1098.649, 2234.021
1099.748, 1782.124
1100.846, 1627.293
1101.945, 1512.741
1103.043, 1192.042
1104.141, 1064.508
1105.239, 1000.001
1106.337, 879.5220
1107.434, 796.5151
1108.532, 781.7236
1109.629, 661.3237
1110.726, 645.5654
1111.823, 658.2163
1112.920, 653.2656
1114.017, 669.2080
1115.113, 718.7290
1116.210, 899.7104
1117.306, 862.3584
1118.402, 929.1489
1119.498, 1055.648
1120.593, 957.4810
1121.689, 980.3335
1122.784, 1141.138
1123.879, 1046.029
1124.974, 973.2661
1126.069, 807.7881
1127.164, 600.4141
1128.259, 594.3730
1129.353, 428.1748
1130.447, 343.1636
1131.541, 307.7749
1132.635, 277.7905
1133.729, 228.8174
1134.822, 136.6011
1135.916, 213.6504
1137.009, 154.7100
1138.102, 227.7817
1139.195, 130.8594
1140.288, 63.03320
1141.380, 41.25098
1142.473, 24.35010
1143.565, 10.19873
1144.657, 5.375488
1145.749, 19.26611
1146.841, 74.15674
1147.932, 20.93652
1149.024, 54.04395
1150.115, 56.80908
1151.206, 5.494141
1152.297, 124.4321
1153.388, 88.37939
1154.479, 91.38965
1155.569, 68.91113
1156.659, 90.89014
1157.750, 5.921875
1158.839, 138.8281
1159.929, 135.1440
1161.019, 26.22705
1162.108, 78.45508
1163.198, 52.66211
1164.287, 33.95410
1165.376, 81.26416
1166.465, 132.0186
1167.553, 62.42725
1168.642, 42.80029
1169.730, 55.26270
1170.818, 54.87842
1171.906, 52.60840
1172.994, 22.85596
1174.082, 89.52051
1175.170, 66.11963
1176.257, 25.67920
1177.344, 63.91113
1178.431, 12.38916
1179.518, 2.300293
1180.605, 104.3110
1181.691, 99.06445
1182.778, 44.86035
1183.864, 4.225098
1184.950, 52.51172
1186.036, 28.42627
1187.122, 50.13330
1188.207, 24.91992
1189.292, 6.095215
1190.378, 16.28467
1191.463, 4.562500
1192.548, 29.61816
1193.632, 45.84570
1194.717, 41.12891
1195.801, 49.46729
1196.886, 28.13379
1197.970, 40.71143
1199.054, 8.502441
1200.137, 4.975586
1201.221, 3.494629
1202.305, 28.94287
1203.388, 72.41992
1204.471, 6.189941
1205.554, 35.84717
1206.637, 27.25195
1207.719, 73.88232
1208.802, 46.26562
1209.884, 0.6313480
1210.966, 6.578125
1212.048, 66.42090
1213.130, 35.39453
1214.212, 113.3320
1215.293, 105.2812
1216.374, 78.13574
1217.456, 96.05029
1218.536, 90.89014
1219.617, 63.70459
1220.698, 90.48779
1221.778, 27.24463
1222.859, 62.95459
1223.939, 105.6299
1225.019, 38.27930
1226.099, 144.8838
1227.178, 81.46143
1228.258, 72.00781
1229.337, 78.51855
1230.417, 52.22852
1231.496, 118.4263
1232.574, 53.82910
1233.653, 176.1870
1234.732, 210.5166
1235.810, 228.8184
1236.888, 148.1025
1237.966, 126.3579
1239.044, 204.5830
1240.122, 71.77930
1241.199, 182.9307
1242.277, 118.0532
1243.354, 127.1411
1244.431, 149.1982
1245.508, 237.2246
1246.585, 74.22119
1247.661, 208.1704
1248.738, 116.0884
1249.814, 195.9697
1250.890, 183.8184
1251.966, 111.6357
1253.042, 180.4131
1254.117, 101.1587
1255.193, 130.8604
1256.268, 128.5283
1257.343, 186.1582
1258.418, 125.7559
1259.493, 203.3135
1260.567, 138.8379
1261.642, 200.3247
1262.716, 202.8081
1263.790, 137.2290
1264.864, 247.6191
1265.938, 286.9761
1267.011, 198.2998
1268.085, 233.5889
1269.158, 191.9629
1270.231, 96.18408
1271.304, 262.3530
1272.377, 200.4888
1273.450, 222.4487
1274.522, 260.4312
1275.594, 243.1680
1276.666, 197.2256
1277.738, 149.8330
1278.810, 195.4419
1279.882, 184.8843
1280.953, 238.6372
1282.025, 208.9297
1283.096, 216.0674
1284.167, 159.4556
1285.238, 198.9751
1286.308, 199.4077
1287.379, 184.8965
1288.449, 94.50439
1289.519, 183.1396
1290.589, 204.8770
1291.659, 117.3096
1292.729, 225.8296
1293.798, 222.0532
1294.868, 92.11182
1295.937, 195.9453
1297.006, 179.5928
1298.075, 235.3354
1299.143, 127.0850
1300.212, 193.3960
1301.280, 249.0786
1302.348, 168.2173
1303.416, 194.4829
1304.484, 81.97461
1305.552, 177.0054
1306.620, 230.3213
1307.687, 185.2505
1308.754, 113.5947
1309.821, 174.0542
1310.888, 162.6846
1311.955, 189.4136
1313.021, 144.7588
1314.088, 159.7715
1315.154, 126.0645
1316.220, 145.6699
1317.286, 216.5874
1318.352, 187.4897
1319.417, 210.9839
1320.483, 209.0005
1321.548, 208.0952
1322.613, 227.5024
1323.678, 208.9858
1324.743, 191.9292
1325.807, 182.0527
1326.872, 118.4258
1327.936, 201.3926
1329.000, 181.5488
1330.064, 229.5869
1331.128, 138.6436
1332.191, 225.9487
1333.255, 196.4331
1334.318, 97.93115
1335.381, 113.8428
1336.444, 134.7065
1337.507, 155.3579
1338.569, 165.5830
1339.632, 173.9102
1340.694, 152.2983
1341.756, 177.1274
1342.818, 185.1924
1343.880, 175.2339
1344.941, 121.1714
1346.003, 207.1675
1347.064, 228.1265
1348.125, 262.6709
1349.186, 212.5522
1350.247, 250.7715
1351.308, 184.1572
1352.368, 260.1064
1353.428, 236.9170
1354.489, 198.7788
1355.549, 181.3594
1356.608, 262.2344
1357.668, 225.2393
1358.727, 312.1855
1359.787, 291.8618
1360.846, 295.6924
1361.905, 216.3662
1362.964, 238.0786
1364.022, 211.1719
1365.081, 206.5498
1366.139, 227.5474
1367.197, 200.2710
1368.255, 302.2114
1369.313, 264.7495
1370.371, 261.8945
1371.428, 258.5054
1372.486, 237.9546
1373.543, 181.5713
1374.600, 235.3164
1375.657, 181.7266
1376.713, 191.8164
1377.770, 204.8076
1378.826, 217.1660
1379.882, 199.5757
1380.938, 255.9014
1381.994, 196.8818
1383.050, 188.6230
1384.106, 131.2183
1385.161, 209.6377
1386.216, 209.0562
1387.271, 200.2866
1388.326, 197.8911
1389.381, 106.0908
1390.435, 268.5200
1391.490, 165.1421
1392.544, 156.3096
1393.598, 216.4482
1394.652, 131.6689
1395.705, 83.78125
1396.759, 126.7944
1397.812, 175.7539
1398.866, 136.9658
1399.919, 178.9595
1400.972, 124.0063
1402.024, 110.3643
1403.077, 160.4868
1404.129, 160.3765
1405.181, 156.6074
1406.233, 111.4541
1407.285, 102.1670
1408.337, 173.1221
1409.389, 157.0503
1410.440, 184.0151
1411.491, 151.4590
1412.542, 140.8276
1413.593, 140.9092
1414.644, 102.9854
1415.695, 121.1113
1416.745, 122.9463
1417.795, 108.9033
1418.845, 110.8105
1419.895, 92.91309
1420.945, 61.83057
1421.995, 134.1577
1423.044, 85.13672
1424.093, 23.96631
1425.142, 105.9570
1426.191, 64.25977
1427.240, 82.14453
1428.289, 203.0449
1429.337, 115.7651
1430.385, 91.66455
1431.433, 136.1279
1432.481, 106.9580
1433.529, 121.2051
1434.577, 83.72363
1435.624, 133.9131
1436.672, 107.7607
1437.719, 115.6279
1438.766, 67.55029
1439.812, 143.2720
1440.859, 150.1362
1441.905, 121.0288
1442.952, 141.1538
1443.998, 155.8169
1445.044, 111.6396
1446.090, 115.5742
1447.135, 98.50537
1448.181, 48.25098
1449.226, 133.5093
1450.271, 50.61572
1451.316, 78.48145
1452.361, 166.5835
1453.405, 160.6279
1454.450, 58.72949
1455.494, 101.3936
1456.538, 7.597168
1457.582, 80.84619
1458.626, 111.1011
1459.670, 100.3438
1460.713, 170.5142
1461.757, 128.7246
1462.800, 139.9331
1463.843, 151.1465
1464.886, 84.36572
1465.928, 132.5776
1466.971, 84.79932
1468.013, 116.0283
1469.055, 124.2539
1470.097, 109.4404
1471.139, 97.61572
1472.181, 110.9771
1473.222, 26.97314
1474.263, 145.1396
1475.305, 76.31494
1476.346, 115.4917
1477.386, 47.66699
1478.427, 121.8501
1479.468, 61.03516
1480.508, 12.22363
1481.548, 86.41699
1482.588, 78.56885
1483.628, 138.7412
1484.668, 118.9126
1485.707, 93.91650
1486.747, 89.11133
1487.786, 55.30762
1488.825, 42.49854
1489.864, 118.7041
1490.902, 108.9092
1491.941, 33.13037
1492.979, 84.36035
1494.017, 102.6016
1495.055, 74.86377
1496.093, 5.145996
1497.131, 99.43701
1498.168, 31.53516
1499.206, 20.99707
1500.243, 96.11035
1501.280, 95.36523
1502.317, 190.6860
1503.354, 94.03906
1504.390, 167.3926
1505.426, 116.7808
1506.463, 84.06152
1507.499, 17.52344
1508.535, 89.90674
1509.570, 27.34277
1510.606, 108.7837
1511.641, 99.97607
1512.676, 85.20264
1513.711, 67.68750
1514.746, 15.02002
1515.781, 35.44727
1516.816, 62.04980
1517.850, 94.55518
1518.884, 42.06787
1519.918, 182.5889
1520.952, 65.11768
1521.986, 101.6548
1523.019, 33.20361
1524.053, 107.2236
1525.086, 129.7847
1526.119, 7.096680
1527.152, 42.70361
1528.185, 124.2769
1529.217, 61.86475
1530.250, 114.4712
1531.282, 110.6113
1532.314, 87.36914
1533.346, 110.3457
1534.377, 109.7764
1535.409, 78.05127
1536.440, 105.9224
1537.472, 137.8389
1538.503, 114.3394
1539.534, 104.8418
1540.564, 62.38281
1541.595, 75.13623
1542.625, 124.4785
1543.656, 30.81689
1544.686, 57.53174
1545.716, 68.40479
1546.745, 44.81885
1547.775, 48.59424
1548.804, 133.6152
1549.834, 50.52539
1550.863, 157.4526
1551.892, 131.6538
1552.920, 255.2866
1553.949, 294.8403
1554.977, 159.3750
1556.006, 125.8096
1557.034, 128.2188
1558.062, 139.6553
1559.089, 50.13232
1560.117, 134.6406
1561.144, 53.27832
1562.172, 61.21045
1563.199, 78.52539
1564.226, 104.9624
1565.252, 15.59521
1566.279, 65.99463
1567.305, 120.7925
1568.332, 2.490723
1569.358, 87.53711
1570.384, 130.4785
1571.409, 19.76367
1572.435, 0.0000000E+00
##END=



