##NAMES=Epidote
##RRUFFID=R050303
##IDEAL CHEMISTRY=Ca_2_Fe^3+^Al_2_(Si_2_O_7_)(SiO_4_)O(OH)
##LOCALITY=San Martin mine, Zacatecas, Mexico
##OWNER=RRUFF
##SOURCE=Eugene Schlepp
##DESCRIPTION=Green elongated prismatic crystals
##STATUS=The identification of this mineral has been confirmed by X-ray diffraction and chemical analysis
##URL=rruff.info/R050303
##MEASURED CHEMISTRY=Ca_2.00_Al_2.00_(Fe^3+^_0.97_Al_0.03_)(SiO_4_)(Si_2_O_7_)O(OH)
##PIN_ID=L01647
##ORIENTATION=Laser parallel to (1 0 1). Fiducial mark perpendicular to laser is parallel to b [0 1 0]
53.91000, 0.0000000E+00
55.14900, 50.40698
56.38700, 108.5499
57.62600, 199.0240
58.86400, 239.5632
60.10300, 396.3481
61.34100, 314.4750
62.57900, 169.8448
63.81700, 92.88959
65.05400, 19.79700
66.29200, 79.67084
67.52900, 81.19629
68.76700, 102.1981
70.00400, 243.1324
71.24100, 222.2750
72.47700, 254.3376
73.71400, 389.0774
74.95100, 754.3037
76.18700, 1252.750
77.42300, 1633.174
78.65900, 2288.364
79.89500, 3432.139
81.13100, 4740.349
82.36700, 6397.859
83.60200, 8546.558
84.83700, 10861.34
86.07200, 13353.12
87.30800, 16348.82
88.54200, 18929.37
89.77700, 21178.70
91.01200, 22438.75
92.24600, 23076.43
93.48000, 22302.06
94.71400, 21107.32
95.94800, 18907.80
97.18200, 15948.45
98.41600, 13714.22
99.64900, 12625.05
100.8830, 10147.94
102.1160, 8189.835
103.3490, 7029.727
104.5820, 6212.601
105.8150, 5620.452
107.0470, 6153.268
108.2800, 4878.101
109.5120, 6401.729
110.7440, 3419.349
111.9760, 2691.879
113.2080, 2578.308
114.4400, 2914.624
115.6710, 3061.819
116.9030, 3090.880
118.1340, 2946.801
119.3650, 2900.571
120.5960, 2933.184
121.8270, 2959.628
123.0580, 3056.897
124.2880, 2920.985
125.5190, 2466.880
126.7490, 2369.578
127.9790, 2235.928
129.2090, 2271.486
130.4390, 2009.369
131.6680, 2000.890
132.8980, 1786.699
134.1270, 1614.123
135.3560, 1598.102
136.5850, 1604.388
137.8140, 1734.009
139.0430, 1863.983
140.2710, 1741.332
141.5000, 1643.068
142.7280, 1456.207
143.9560, 1475.793
145.1840, 1544.841
146.4120, 1655.320
147.6390, 1821.245
148.8670, 2051.893
150.0940, 2307.471
151.3210, 2698.798
152.5490, 2998.626
153.7750, 3509.076
155.0020, 4153.216
156.2290, 4685.935
157.4550, 5550.162
158.6810, 6300.893
159.9080, 7057.132
161.1340, 7966.875
162.3590, 8699.122
163.5850, 9353.870
164.8110, 9793.117
166.0360, 9726.867
167.2610, 9450.114
168.4860, 9051.852
169.7110, 8593.082
170.9360, 7573.803
172.1610, 6466.015
173.3850, 5461.712
174.6100, 4430.897
175.8340, 3685.566
177.0580, 3041.720
178.2820, 2347.355
179.5050, 1921.470
180.7290, 1509.062
181.9520, 981.1309
183.1760, 771.6729
184.3990, 608.6875
185.6220, 494.1724
186.8450, 323.1250
188.0670, 208.5435
189.2900, 290.4253
190.5120, 404.7686
191.7340, 484.5718
192.9560, 629.0996
194.1780, 848.5435
195.4000, 914.7090
196.6220, 985.3232
197.8430, 1106.385
199.0640, 1010.891
200.2860, 1065.839
201.5070, 1051.953
202.7270, 871.8174
203.9480, 559.4331
205.1690, 307.8062
206.3890, 4.014648
207.6090, 173.2671
208.8290, 209.6792
210.0490, 233.2676
211.2690, 344.1577
212.4890, 164.3604
213.7080, 117.7578
214.9280, 202.2578
216.1470, 570.5190
217.3660, 1147.392
218.5850, 1586.858
219.8030, 2099.510
221.0220, 2763.502
222.2400, 3121.649
223.4590, 3598.325
224.6770, 4053.521
225.8950, 4380.222
227.1120, 4808.418
228.3300, 5161.098
229.5480, 5699.256
230.7650, 6356.878
231.9820, 6987.446
233.1990, 7757.811
234.4160, 8047.563
235.6330, 8251.983
236.8490, 8371.881
238.0660, 8079.246
239.2820, 7655.129
240.4980, 7150.517
241.7140, 6851.426
242.9300, 6173.857
244.1460, 5694.812
245.3610, 5363.318
246.5770, 4640.367
247.7920, 4044.962
249.0070, 3295.107
250.2220, 2743.838
251.4370, 2170.700
252.6510, 1878.496
253.8660, 1523.340
255.0800, 1382.860
256.2940, 1389.359
257.5080, 1697.777
258.7220, 1713.868
259.9360, 2368.685
261.1490, 2197.147
262.3630, 2421.945
263.5760, 2929.074
264.7890, 3717.533
266.0020, 4364.313
267.2150, 4991.418
268.4270, 5360.842
269.6400, 5837.581
270.8520, 6075.633
272.0640, 6069.996
273.2760, 6037.665
274.4880, 6004.639
275.7000, 5893.917
276.9120, 5891.498
278.1230, 5518.352
279.3340, 5330.454
280.5450, 5229.847
281.7560, 5144.549
282.9670, 4921.555
284.1780, 4989.869
285.3880, 5237.486
286.5980, 5245.406
287.8090, 5537.631
289.0190, 5490.156
290.2290, 5491.982
291.4380, 5452.108
292.6480, 5460.529
293.8570, 5456.251
295.0670, 5432.267
296.2760, 5254.576
297.4850, 5231.558
298.6930, 5147.072
299.9020, 5280.256
301.1110, 5719.727
302.3190, 6262.483
303.5270, 6726.523
304.7350, 7176.843
305.9430, 7920.445
307.1510, 8418.328
308.3580, 8646.485
309.5660, 8758.924
310.7730, 8861.631
311.9800, 8789.616
313.1870, 8818.871
314.3940, 8985.397
315.6010, 9185.192
316.8070, 9619.256
318.0130, 9878.582
319.2200, 10311.17
320.4260, 10726.03
321.6310, 10740.15
322.8370, 10721.52
324.0430, 10616.16
325.2480, 10206.05
326.4540, 9672.193
327.6590, 9021.594
328.8640, 8610.245
330.0680, 7981.147
331.2730, 7526.301
332.4780, 7510.697
333.6820, 7474.340
334.8860, 7775.229
336.0900, 8283.356
337.2940, 9049.729
338.4980, 10027.34
339.7010, 11659.19
340.9050, 12327.77
342.1080, 13443.59
343.3110, 13919.14
344.5140, 14314.92
345.7170, 14437.93
346.9200, 14367.25
348.1220, 13824.86
349.3240, 13112.77
350.5270, 12728.00
351.7290, 11807.45
352.9310, 10958.74
354.1320, 10389.90
355.3340, 9864.068
356.5350, 9278.697
357.7370, 8751.365
358.9380, 8481.759
360.1390, 8077.464
361.3400, 7577.457
362.5400, 7002.736
363.7410, 6023.299
364.9410, 5288.143
366.1410, 4377.264
367.3410, 3627.662
368.5410, 2838.336
369.7410, 1971.281
370.9400, 1440.496
372.1400, 834.9805
373.3390, 439.7344
374.5380, 186.7529
375.7370, 52.96387
376.9360, 211.4238
378.1350, 78.65332
379.3330, 38.10352
380.5310, 290.6963
381.7300, 462.9668
382.9280, 629.8057
384.1260, 781.2344
385.3230, 792.7422
386.5210, 871.4121
387.7180, 688.5742
388.9160, 660.2158
390.1130, 259.2900
391.3100, 186.1143
392.5060, 79.54004
393.7030, 68.46973
394.9000, 182.7695
396.0960, 330.0752
397.2920, 242.7324
398.4880, 280.3984
399.6840, 74.13867
400.8800, 78.95215
402.0750, 377.4775
403.2710, 722.9180
404.4660, 1082.305
405.6610, 1433.000
406.8560, 1838.081
408.0510, 2208.586
409.2450, 2697.715
410.4400, 3157.024
411.6340, 3665.515
412.8280, 4260.184
414.0220, 5107.029
415.2160, 5831.051
416.4100, 6447.244
417.6030, 7470.611
418.7970, 8064.148
419.9900, 8909.854
421.1830, 9860.727
422.3760, 11071.77
423.5690, 12595.99
424.7610, 14305.39
425.9540, 15914.96
427.1460, 17396.71
428.3380, 18320.65
429.5300, 18993.75
430.7220, 19382.05
431.9140, 18979.52
433.1050, 18858.17
434.2970, 19033.02
435.4880, 18980.05
436.6790, 19606.30
437.8700, 20882.73
439.0610, 22292.35
440.2510, 23904.17
441.4420, 25724.18
442.6320, 27532.38
443.8220, 29139.75
445.0120, 30404.30
446.2020, 31888.04
447.3910, 32557.98
448.5810, 33334.12
449.7700, 33593.46
450.9600, 33284.00
452.1490, 31691.71
453.3370, 30254.60
454.5260, 27882.65
455.7150, 25970.90
456.9030, 23577.30
458.0910, 21194.88
459.2800, 19046.66
460.4670, 16678.60
461.6550, 14001.70
462.8430, 11950.96
464.0300, 10032.35
465.2180, 8201.888
466.4050, 6846.579
467.5920, 5511.420
468.7790, 4719.416
469.9650, 3735.546
471.1520, 3145.828
472.3380, 2568.240
473.5250, 2288.780
474.7110, 1976.440
475.8970, 1879.215
477.0820, 1763.101
478.2680, 1641.096
479.4540, 1704.199
480.6390, 1875.402
481.8240, 2032.718
483.0090, 2315.138
484.1940, 2658.677
485.3780, 3070.312
486.5630, 3700.038
487.7470, 4340.854
488.9320, 5171.755
490.1160, 5817.747
491.3000, 6470.817
492.4830, 6892.986
493.6670, 7195.233
494.8500, 7524.559
496.0340, 7776.964
497.2170, 7724.448
498.4000, 7645.012
499.5820, 7568.658
500.7650, 7491.373
501.9480, 7277.150
503.1300, 6895.693
504.3120, 6399.871
505.4940, 5872.811
506.6760, 5222.802
507.8580, 4522.841
509.0390, 3690.925
510.2210, 3200.053
511.4020, 2713.220
512.5830, 2180.572
513.7640, 1803.879
514.9450, 1365.162
516.1250, 1076.552
517.3060, 807.2173
518.4860, 598.2061
519.6660, 434.9888
520.8460, 175.3091
522.0260, 8.513672
523.2060, 12.73828
524.3850, 242.4253
525.5650, 207.0811
526.7440, 327.9897
527.9230, 340.2915
529.1020, 358.9116
530.2810, 487.7910
531.4590, 468.9946
532.6380, 492.5156
533.8160, 511.3706
534.9940, 461.5728
536.1720, 432.1523
537.3500, 299.6562
538.5270, 311.8584
539.7050, 107.8813
540.8820, 69.31055
542.0590, 99.55566
543.2360, 211.8081
544.4130, 369.0151
545.5900, 643.2070
546.7660, 981.3882
547.9430, 1291.557
549.1190, 1896.712
550.2950, 2462.852
551.4710, 3253.977
552.6470, 4366.082
553.8220, 5730.168
554.9980, 7511.234
556.1730, 9149.278
557.3480, 10608.30
558.5230, 11655.30
559.6980, 12157.26
560.8730, 12176.21
562.0470, 11817.12
563.2220, 11420.87
564.3960, 10702.07
565.5700, 10332.77
566.7440, 9702.877
567.9170, 8801.779
569.0910, 7485.450
570.2640, 6740.044
571.4380, 5817.458
572.6110, 5437.457
573.7840, 5391.376
574.9570, 5428.856
576.1290, 5878.658
577.3020, 6593.969
578.4740, 6903.237
579.6460, 7763.063
580.8180, 8503.060
581.9900, 9272.074
583.1620, 10339.51
584.3330, 10806.37
585.5040, 11893.66
586.6760, 13047.78
587.8470, 14301.49
589.0180, 15562.77
590.1880, 16679.85
591.3590, 17639.71
592.5290, 18318.29
593.7000, 18827.62
594.8700, 18800.65
596.0400, 18705.57
597.2090, 18505.62
598.3790, 18287.16
599.5490, 18107.12
600.7180, 17856.43
601.8870, 17832.28
603.0560, 17704.88
604.2250, 17550.27
605.3940, 17231.40
606.5620, 16804.37
607.7300, 16026.87
608.8990, 14832.15
610.0670, 13905.80
611.2350, 12838.95
612.4020, 11528.84
613.5700, 10473.24
614.7370, 9248.128
615.9050, 8128.277
617.0720, 7079.832
618.2390, 6243.631
619.4060, 5390.733
620.5720, 4725.126
621.7390, 4177.838
622.9050, 3572.138
624.0710, 3229.677
625.2370, 2897.965
626.4030, 2617.196
627.5690, 2346.509
628.7340, 2176.011
629.9000, 1968.990
631.0650, 1851.906
632.2300, 1814.149
633.3950, 1569.815
634.5600, 1509.959
635.7240, 1518.613
636.8890, 1391.533
638.0530, 1428.798
639.2170, 1285.036
640.3810, 1171.898
641.5450, 1129.427
642.7080, 1051.429
643.8720, 1008.083
645.0350, 956.7153
646.1980, 936.4653
647.3610, 862.7979
648.5240, 911.7119
649.6870, 873.4265
650.8490, 906.8337
652.0120, 831.7117
653.1740, 852.7935
654.3360, 762.3926
655.4980, 850.8420
656.6600, 820.1514
657.8210, 759.3164
658.9830, 837.3335
660.1440, 796.2217
661.3050, 788.0859
662.4660, 805.0542
663.6270, 746.2180
664.7870, 794.4604
665.9480, 784.2161
667.1080, 776.9939
668.2680, 876.7104
669.4280, 851.0330
670.5880, 734.9731
671.7480, 795.5754
672.9070, 851.5195
674.0670, 841.9536
675.2260, 965.9111
676.3850, 1031.238
677.5440, 1109.638
678.7030, 1200.433
679.8610, 1230.288
681.0200, 1428.266
682.1780, 1432.477
683.3360, 1601.329
684.4940, 1627.339
685.6520, 1791.476
686.8090, 2027.492
687.9670, 1837.450
689.1240, 1790.809
690.2810, 1517.830
691.4380, 1397.370
692.5950, 1251.791
693.7520, 1144.092
694.9080, 997.2734
696.0650, 880.3352
697.2210, 668.2766
698.3770, 700.0977
699.5330, 643.7988
700.6880, 468.3794
701.8440, 326.8396
702.9990, 286.1704
704.1550, 210.3655
705.3100, 191.4114
706.4650, 158.3047
707.6190, 129.2144
708.7740, 163.6033
709.9290, 101.0105
711.0830, 110.2434
712.2370, 109.3049
713.3910, 21.19531
714.5450, 3.117676
715.6980, 45.64648
716.8520, 16.58862
718.0050, 4.620361
719.1580, 64.55566
720.3110, 12.02490
721.4640, 45.59644
722.6170, 48.55103
723.7700, 1.483643
724.9220, 49.72339
726.0740, 126.1921
727.2260, 74.92871
728.3780, 122.9048
729.5300, 123.1438
730.6810, 10.64453
731.8330, 58.34595
732.9840, 41.27197
734.1350, 91.41162
735.2860, 33.78882
736.4370, 93.37158
737.5880, 152.1895
738.7380, 82.27246
739.8880, 31.57983
741.0390, 48.08447
742.1890, 17.20801
743.3380, 33.66650
744.4880, 51.73267
745.6380, 64.99707
746.7870, 82.05322
747.9360, 29.14307
749.0850, 90.00098
750.2340, 27.06860
751.3830, 24.31006
752.5310, 4.721924
753.6800, 6.709229
754.8280, 19.99097
755.9760, 2.129883
757.1240, 19.12207
758.2720, 41.97534
759.4190, 34.30469
760.5670, 12.74219
761.7140, 74.32300
762.8610, 2.922363
764.0080, 47.03418
765.1550, 29.02197
766.3020, 66.88477
767.4480, 19.37012
768.5950, 82.24194
769.7410, 61.25952
770.8870, 2.091553
772.0330, 17.32129
773.1780, 38.43457
774.3240, 80.43530
775.4690, 36.33032
776.6140, 111.1152
777.7590, 34.79980
778.9040, 44.37769
780.0490, 73.85132
781.1940, 93.22559
782.3380, 40.50317
783.4820, 72.68066
784.6260, 64.45068
785.7700, 91.74927
786.9140, 92.64453
788.0580, 106.4492
789.2010, 161.1660
790.3450, 98.65210
791.4880, 168.1333
792.6310, 196.5901
793.7730, 141.8896
794.9160, 203.8645
796.0590, 207.9763
797.2010, 235.8948
798.3430, 254.2771
799.4850, 280.5137
800.6270, 384.0476
801.7690, 384.9370
802.9100, 449.1296
804.0520, 399.4329
805.1930, 516.4397
806.3340, 537.5774
807.4750, 510.7803
808.6160, 571.0808
809.7560, 644.4761
810.8970, 632.9739
812.0370, 831.5806
813.1770, 853.2864
814.3170, 945.0857
815.4570, 1093.948
816.5960, 1102.875
817.7360, 1308.822
818.8750, 1410.780
820.0140, 1475.714
821.1530, 1551.607
822.2920, 1783.444
823.4310, 1756.224
824.5690, 2033.946
825.7070, 2029.613
826.8460, 2182.225
827.9840, 2274.781
829.1220, 2413.285
830.2590, 2426.736
831.3970, 2567.135
832.5340, 2638.483
833.6710, 2748.080
834.8080, 2863.030
835.9450, 2984.229
837.0820, 3140.383
838.2190, 3242.489
839.3550, 3438.689
840.4910, 3701.352
841.6270, 3860.448
842.7630, 4172.054
843.8990, 4542.788
845.0350, 4905.676
846.1700, 5026.562
847.3060, 5753.549
848.4410, 6225.875
849.5760, 6913.197
850.7100, 7703.879
851.8450, 8519.160
852.9800, 9366.853
854.1140, 10402.50
855.2480, 11359.51
856.3820, 12386.28
857.5160, 13344.94
858.6500, 14233.09
859.7830, 14961.75
860.9170, 15515.88
862.0500, 16021.11
863.1830, 16613.66
864.3160, 17254.56
865.4480, 17990.58
866.5810, 19166.73
867.7130, 20506.09
868.8460, 22184.27
869.9780, 23925.37
871.1100, 26364.16
872.2410, 28868.75
873.3730, 31623.78
874.5050, 34858.32
875.6360, 37981.44
876.7670, 41562.93
877.8980, 44544.60
879.0290, 47068.43
880.1590, 49470.43
881.2900, 50443.51
882.4200, 50751.00
883.5500, 49261.63
884.6800, 47087.83
885.8100, 44351.45
886.9400, 41438.23
888.0690, 37881.46
889.1990, 34456.12
890.3280, 31447.46
891.4570, 28273.32
892.5860, 25879.87
893.7140, 23410.04
894.8430, 21871.87
895.9710, 20289.30
897.1000, 19453.07
898.2280, 18713.54
899.3560, 18116.16
900.4830, 17950.76
901.6110, 18091.21
902.7380, 18552.40
903.8660, 19222.03
904.9930, 19859.64
906.1200, 20848.83
907.2460, 21831.52
908.3730, 22842.66
909.5000, 23401.19
910.6260, 24117.36
911.7520, 24064.12
912.8780, 23526.81
914.0040, 22450.79
915.1290, 21182.03
916.2550, 19542.69
917.3800, 17744.62
918.5050, 16045.18
919.6300, 14046.13
920.7550, 12866.12
921.8800, 11303.42
923.0040, 9801.839
924.1290, 8662.475
925.2530, 7634.549
926.3770, 6744.330
927.5010, 5992.504
928.6250, 5134.731
929.7480, 4726.009
930.8720, 4195.340
931.9950, 3858.727
933.1180, 3459.167
934.2410, 3031.662
935.3640, 2706.218
936.4860, 2473.829
937.6090, 2229.499
938.7310, 2179.228
939.8530, 1871.010
940.9750, 1793.847
942.0970, 1660.738
943.2180, 1508.681
944.3400, 1403.677
945.4610, 1389.727
946.5820, 1305.829
947.7030, 1226.983
948.8240, 1123.190
949.9450, 1099.449
951.0650, 1140.762
952.1860, 1043.131
953.3060, 1093.553
954.4260, 964.0264
955.5460, 1011.552
956.6650, 1002.130
957.7850, 974.7700
958.9040, 899.4629
960.0230, 975.2285
961.1420, 965.0483
962.2610, 941.9229
963.3800, 1129.853
964.4990, 1097.843
965.6170, 1309.891
966.7350, 1469.007
967.8530, 1660.180
968.9710, 1842.415
970.0890, 2069.722
971.2070, 2427.106
972.3240, 2695.552
973.4410, 3101.071
974.5580, 3297.659
975.6750, 3355.314
976.7920, 3630.043
977.9090, 3558.854
979.0250, 3452.748
980.1410, 3429.726
981.2580, 3104.800
982.3740, 2935.969
983.4890, 2516.225
984.6050, 2219.573
985.7200, 1845.027
986.8360, 1639.598
987.9510, 1298.305
989.0660, 1097.123
990.1810, 968.0518
991.2950, 848.1123
992.4100, 760.2910
993.5240, 702.5869
994.6390, 692.9858
995.7530, 645.4951
996.8660, 668.0332
997.9800, 636.5190
999.0940, 731.4541
1000.207, 796.0020
1001.320, 842.4102
1002.433, 987.7446
1003.546, 1258.051
1004.659, 1405.549
1005.772, 1805.135
1006.884, 2255.180
1007.996, 2633.196
1009.108, 3099.316
1010.220, 3500.595
1011.332, 4132.225
1012.444, 4433.474
1013.555, 4900.263
1014.666, 5236.391
1015.777, 5166.455
1016.888, 5140.750
1017.999, 4891.898
1019.110, 4545.913
1020.220, 4102.271
1021.331, 3667.498
1022.441, 3175.102
1023.551, 2789.673
1024.661, 2472.742
1025.770, 2147.467
1026.880, 1964.388
1027.989, 1767.319
1029.098, 1723.083
1030.207, 1710.963
1031.316, 1698.115
1032.425, 1609.385
1033.533, 1636.404
1034.642, 1585.224
1035.750, 1663.644
1036.858, 1546.472
1037.966, 1651.862
1039.073, 1518.663
1040.181, 1611.607
1041.288, 1362.952
1042.396, 1297.796
1043.503, 1281.694
1044.610, 1259.790
1045.716, 1122.924
1046.823, 1017.012
1047.929, 1051.513
1049.036, 957.7217
1050.142, 951.9897
1051.248, 933.3154
1052.353, 1015.701
1053.459, 1023.145
1054.564, 1078.645
1055.670, 1046.201
1056.775, 1129.280
1057.880, 1283.481
1058.985, 1239.201
1060.089, 1302.974
1061.194, 1292.802
1062.298, 1257.682
1063.402, 1353.612
1064.506, 1346.593
1065.610, 1481.621
1066.713, 1588.700
1067.817, 1576.383
1068.920, 1688.558
1070.023, 2011.780
1071.126, 2313.515
1072.229, 2584.830
1073.332, 2995.191
1074.435, 3469.601
1075.537, 4084.054
1076.639, 4970.555
1077.741, 5723.100
1078.843, 6735.711
1079.945, 7680.417
1081.046, 8039.094
1082.148, 8436.815
1083.249, 8240.056
1084.350, 7917.734
1085.451, 7503.580
1086.551, 6833.539
1087.652, 6108.467
1088.752, 5280.436
1089.853, 4384.078
1090.953, 3570.124
1092.053, 2928.382
1093.152, 2384.504
1094.252, 1966.662
1095.351, 1566.933
1096.451, 1321.116
1097.550, 1027.393
1098.649, 869.5742
1099.748, 741.9517
1100.846, 586.1367
1101.945, 520.7188
1103.043, 500.5132
1104.141, 439.3413
1105.239, 295.6055
1106.337, 317.7798
1107.434, 204.7441
1108.532, 257.3408
1109.629, 166.8755
1110.726, 197.0635
1111.823, 127.7476
1112.920, 44.18848
1114.017, 89.37988
1115.113, 97.14551
1116.210, 140.2988
1117.306, 144.2563
1118.402, 86.44824
1119.498, 20.13770
1120.593, 90.43457
1121.689, 46.02881
1122.784, 124.3643
1123.879, 4.678711
1124.974, 13.90771
1126.069, 58.46729
1127.164, 1.612305
1128.259, 36.72949
1129.353, 29.43750
1130.447, 11.19336
1131.541, 60.40576
1132.635, 9.169922
1133.729, 11.73926
1134.822, 120.1421
1135.916, 95.93115
1137.009, 93.35498
1138.102, 74.33936
1139.195, 118.7852
1140.288, 66.55078
1141.380, 65.98877
1142.473, 119.1401
1143.565, 56.62939
1144.657, 91.71777
1145.749, 95.78027
1146.841, 65.67334
1147.932, 136.3521
1149.024, 57.34180
1150.115, 76.17871
1151.206, 30.41895
1152.297, 117.3950
1153.388, 121.3169
1154.479, 74.42969
1155.569, 123.8127
1156.659, 93.07935
1157.750, 65.42139
1158.839, 137.7302
1159.929, 104.9739
1161.019, 62.20850
1162.108, 86.34790
1163.198, 10.35986
1164.287, 55.82397
1165.376, 70.44604
1166.465, 58.86157
1167.553, 4.857178
1168.642, 52.22925
1169.730, 12.50732
1170.818, 36.78345
1171.906, 21.08276
1172.994, 24.87354
1174.082, 92.16846
1175.170, 29.47339
1176.257, 22.44141
1177.344, 45.49854
1178.431, 30.42944
1179.518, 35.76807
1180.605, 41.81226
1181.691, 37.99292
1182.778, 56.51343
1183.864, 60.76270
1184.950, 57.75439
1186.036, 53.02661
1187.122, 56.87354
1188.207, 104.8000
1189.292, 92.91089
1190.378, 90.55273
1191.463, 102.8196
1192.548, 68.52832
1193.632, 93.61279
1194.717, 103.7881
1195.801, 89.48975
1196.886, 108.7664
1197.970, 31.53833
1199.054, 78.43896
1200.137, 119.1733
1201.221, 38.75562
1202.305, 83.72021
1203.388, 103.2512
1204.471, 87.73315
1205.554, 101.7935
1206.637, 95.94312
1207.719, 88.53467
1208.802, 71.05713
1209.884, 68.89990
1210.966, 86.59912
1212.048, 91.13086
1213.130, 55.73706
1214.212, 45.14478
1215.293, 137.2930
1216.374, 79.49805
1217.456, 124.5864
1218.536, 115.6453
1219.617, 36.67407
1220.698, 127.6565
1221.778, 5.350586
1222.859, 139.5325
1223.939, 114.3889
1225.019, 102.2087
1226.099, 62.00562
1227.178, 103.7500
1228.258, 25.46167
1229.337, 104.1138
1230.417, 75.73218
1231.496, 24.35938
1232.574, 4.872803
1233.653, 96.31323
1234.732, 17.76001
1235.810, 91.09326
1236.888, 101.3850
1237.966, 129.6365
1239.044, 88.85229
1240.122, 103.0229
1241.199, 139.1521
1242.277, 27.24438
1243.354, 80.26709
1244.431, 167.2395
1245.508, 86.17480
1246.585, 132.0601
1247.661, 89.90503
1248.738, 32.69995
1249.814, 91.42285
1250.890, 117.0945
1251.966, 94.72070
1253.042, 134.2954
1254.117, 73.81494
1255.193, 94.28711
1256.268, 79.70605
1257.343, 159.0344
1258.418, 23.35376
1259.493, 48.03345
1260.567, 108.1997
1261.642, 82.84326
1262.716, 127.7131
1263.790, 88.89551
1264.864, 162.9976
1265.938, 99.97900
1267.011, 57.95117
1268.085, 136.5198
1269.158, 150.2195
1270.231, 62.89136
1271.304, 81.47119
1272.377, 127.7556
1273.450, 227.4875
1274.522, 104.7288
1275.594, 16.68945
1276.666, 127.7617
1277.738, 57.59009
1278.810, 82.78662
1279.882, 178.0872
1280.953, 134.1184
1282.025, 123.3335
1283.096, 130.2224
1284.167, 172.1907
1285.238, 133.1409
1286.308, 134.7466
1287.379, 125.6606
1288.449, 108.0420
1289.519, 99.72778
1290.589, 89.97217
1291.659, 93.63794
1292.729, 87.23950
1293.798, 125.1262
1294.868, 43.24316
1295.937, 6.786865
1297.006, 27.94067
1298.075, 30.56128
1299.143, 75.79102
1300.212, 72.92017
1301.280, 18.67676
1302.348, 41.95508
1303.416, 94.20288
1304.484, 17.27466
1305.552, 133.3262
1306.620, 127.4463
1307.687, 100.1785
1308.754, 121.2244
1309.821, 100.2336
1310.888, 72.20557
1311.955, 91.13672
1313.021, 122.0295
1314.088, 87.88623
1315.154, 52.70435
1316.220, 127.4822
1317.286, 99.22437
1318.352, 98.92944
1319.417, 36.66675
1320.483, 76.33057
1321.548, 95.95068
1322.613, 87.49438
1323.678, 152.9971
1324.743, 77.46216
1325.807, 126.8870
1326.872, 105.7195
1327.936, 124.0691
1329.000, 155.3787
1330.064, 92.18433
1331.128, 155.4143
1332.191, 72.60571
1333.255, 155.7556
1334.318, 80.86963
1335.381, 120.9456
1336.444, 128.9854
1337.507, 88.96729
1338.569, 98.86084
1339.632, 115.7896
1340.694, 103.6819
1341.756, 123.0647
1342.818, 217.0132
1343.880, 154.7983
1344.941, 211.4783
1346.003, 280.1941
1347.064, 209.8760
1348.125, 181.8877
1349.186, 164.5020
1350.247, 217.9082
1351.308, 169.4551
1352.368, 222.9692
1353.428, 168.4500
1354.489, 269.8716
1355.549, 214.2788
1356.608, 189.7839
1357.668, 168.0959
1358.727, 153.6760
1359.787, 197.7161
1360.846, 168.6194
1361.905, 147.4912
1362.964, 206.9290
1364.022, 257.4578
1365.081, 298.1987
1366.139, 263.3086
1367.197, 203.4819
1368.255, 217.0022
1369.313, 225.0264
1370.371, 249.2939
1371.428, 241.0073
1372.486, 288.7507
1373.543, 229.3027
1374.600, 201.0488
1375.657, 184.5583
1376.713, 244.5671
1377.770, 187.9653
1378.826, 255.0630
1379.882, 138.4150
1380.938, 260.7834
1381.994, 232.2317
1383.050, 215.3435
1384.106, 237.8638
1385.161, 179.4033
1386.216, 170.2200
1387.271, 128.2268
1388.326, 138.4546
1389.381, 127.8306
1390.435, 70.52271
1391.490, 201.9951
1392.544, 118.3467
1393.598, 134.3081
1394.652, 167.8054
1395.705, 98.74072
1396.759, 150.9653
1397.812, 173.8396
1398.866, 141.4036
1399.919, 130.2717
1400.972, 163.7158
1402.024, 170.1045
1403.077, 159.2922
1404.129, 187.2397
1405.181, 144.4570
1406.233, 187.4956
1407.285, 176.9075
1408.337, 120.0320
1409.389, 101.0625
1410.440, 127.2427
1411.491, 155.6611
1412.542, 160.9204
1413.593, 171.5210
1414.644, 166.7844
1415.695, 154.5703
1416.745, 150.6399
1417.795, 103.5820
1418.845, 108.6392
1419.895, 137.5669
1420.945, 202.9001
1421.995, 148.9915
1423.044, 170.9146
1424.093, 175.6208
1425.142, 192.4712
1426.191, 162.3271
1427.240, 164.1611
1428.289, 134.7119
1429.337, 182.9048
1430.385, 135.0146
1431.433, 186.5383
1432.481, 110.8999
1433.529, 135.2280
1434.577, 165.4014
1435.624, 186.7100
1436.672, 183.5769
1437.719, 260.6787
1438.766, 163.6575
1439.812, 113.0466
1440.859, 95.07666
1441.905, 144.2915
1442.952, 159.6157
1443.998, 116.7563
1445.044, 39.88696
1446.090, 44.83130
1447.135, 45.15674
1448.181, 114.7307
1449.226, 101.1560
1450.271, 129.7026
1451.316, 151.4106
1452.361, 139.3342
1453.405, 154.9219
1454.450, 132.1689
1455.494, 82.31909
1456.538, 163.5603
1457.582, 131.7732
1458.626, 72.04346
1459.670, 151.8459
1460.713, 100.7041
1461.757, 123.5320
1462.800, 136.3057
1463.843, 194.1040
1464.886, 107.8669
1465.928, 116.6262
1466.971, 181.3118
1468.013, 65.08350
1469.055, 84.81689
1470.097, 101.6025
1471.139, 107.3667
1472.181, 110.1128
1473.222, 107.8792
1474.263, 154.6335
1475.305, 121.3796
1476.346, 155.1584
1477.386, 172.9377
1478.427, 168.7202
1479.468, 125.5237
1480.508, 91.34863
1481.548, 146.2319
1482.588, 109.8960
1483.628, 134.8130
1484.668, 150.7524
1485.707, 118.6733
1486.747, 96.65576
1487.786, 97.71997
1488.825, 114.6609
1489.864, 101.7122
1490.902, 88.78442
1491.941, 128.8525
1492.979, 108.2498
1494.017, 133.9700
1495.055, 89.01782
1496.093, 80.06421
1497.131, 37.11011
1498.168, 137.1577
1499.206, 47.25073
1500.243, 126.3716
1501.280, 173.5076
1502.317, 86.66772
1503.354, 148.8491
1504.390, 64.02393
1505.426, 64.19385
1506.463, 69.36719
1507.499, 53.53760
1508.535, 103.7034
1509.570, 147.7300
1510.606, 82.74707
1511.641, 86.93140
1512.676, 80.13477
1513.711, 59.26245
1514.746, 63.59619
1515.781, 67.87744
1516.816, 84.18970
1517.850, 130.5176
1518.884, 67.86377
1519.918, 67.23022
1520.952, 5.620117
1521.986, 41.03320
1523.019, 41.60132
1524.053, 102.9338
1525.086, 74.42529
1526.119, 106.9451
1527.152, 91.49390
1528.185, 48.07373
1529.217, 143.6838
1530.250, 33.32275
1531.282, 90.98926
1532.314, 4.682861
1533.346, 63.40454
1534.377, 33.15771
1535.409, 8.944336
1536.440, 35.76733
1537.472, 83.62622
1538.503, 12.52051
1539.534, 88.45361
1540.564, 36.42871
1541.595, 36.45337
1542.625, 47.53711
1543.656, 44.67578
1544.686, 37.87207
1545.716, 106.1274
1546.745, 55.44556
1547.775, 107.8308
1548.804, 107.2869
1549.834, 74.81763
1550.863, 238.4270
1551.892, 251.1216
1552.920, 238.9062
1553.949, 422.7903
1554.977, 295.7820
1556.006, 154.8909
1557.034, 65.12939
1558.062, 88.51025
1559.089, 48.04614
1560.117, 88.75269
1561.144, 22.65039
1562.172, 57.76196
1563.199, 27.11597
1564.226, 27.74756
1565.252, 8.299805
1566.279, 92.02637
1567.305, 42.46216
1568.332, 96.21045
1569.358, 38.64111
1570.384, 7.112305
1571.409, 0.3032230
1572.435, 0.0000000E+00
##END=



