##NAMES=Erythrite
##RRUFFID=R050073
##IDEAL CHEMISTRY=Co^2+^_3_(As^5+^O_4_)_2_&#183;8H_2_O
##LOCALITY=Bou Azzer, Morocco
##OWNER=RRUFF
##SOURCE=Rock Currier
##DESCRIPTION=Crimson flattened crystals
##STATUS=The identification of this mineral has been confirmed by X-ray diffraction and chemical analysis
##URL=rruff.info/R050073
##MEASURED CHEMISTRY=(Co_0.65_Mg_0.35_)_3_(As_1.00_O_4_)_2_Â·8H_2_O
##PIN_ID=M00408
##ORIENTATION=Laser parallel to a* (1 0 0). Fiducial mark perpendicular to laser is parallel to b [0 1 0]
93.48000, 0.0000000E+00
94.71400, 122.5205
95.94800, 230.0811
97.18200, 331.4111
98.41600, 271.3701
99.64900, 415.9717
100.8830, 57.92578
102.1160, 109.0576
103.3490, 147.9961
104.5820, 602.2578
105.8150, 1311.045
107.0470, 2375.795
108.2800, 3221.037
109.5120, 4106.399
110.7440, 2873.580
111.9760, 1565.315
113.2080, 1583.369
114.4400, 2124.525
115.6710, 2919.589
116.9030, 2881.391
118.1340, 3362.782
119.3650, 1947.637
120.5960, 1138.842
121.8270, 786.3008
123.0580, 720.9375
124.2880, 632.7432
125.5190, 221.6777
126.7490, 170.6602
127.9790, 372.6162
129.2090, 703.4824
130.4390, 904.2041
131.6680, 995.7139
132.8980, 1002.940
134.1270, 1133.816
135.3560, 1179.298
136.5850, 1614.346
137.8140, 1758.930
139.0430, 2002.023
140.2710, 2067.603
141.5000, 1838.647
142.7280, 1682.138
143.9560, 2038.060
145.1840, 2218.395
146.4120, 2539.133
147.6390, 2530.258
148.8670, 2678.760
150.0940, 2995.627
151.3210, 3748.891
152.5490, 4384.769
153.7750, 4670.583
155.0020, 4908.175
156.2290, 4669.070
157.4550, 4553.192
158.6810, 4333.543
159.9080, 4044.117
161.1340, 3826.916
162.3590, 3467.942
163.5850, 3464.202
164.8110, 3327.695
166.0360, 3208.426
167.2610, 2763.348
168.4860, 2476.304
169.7110, 2354.266
170.9360, 2101.219
172.1610, 2141.048
173.3850, 2118.938
174.6100, 2022.904
175.8340, 2268.964
177.0580, 2426.127
178.2820, 2496.401
179.5050, 2659.795
180.7290, 2617.315
181.9520, 2787.966
183.1760, 2818.749
184.3990, 3033.670
185.6220, 3487.729
186.8450, 3910.927
188.0670, 4341.266
189.2900, 4872.744
190.5120, 5331.367
191.7340, 5802.128
192.9560, 6125.129
194.1780, 6509.074
195.4000, 6674.256
196.6220, 6819.576
197.8430, 7033.037
199.0640, 6902.633
200.2860, 7115.365
201.5070, 7523.234
202.7270, 7529.236
203.9480, 6598.371
205.1690, 5333.637
206.3890, 4460.034
207.6090, 3962.558
208.8290, 3914.867
210.0490, 4022.457
211.2690, 3874.037
212.4890, 3681.078
213.7080, 3436.508
214.9280, 3308.484
216.1470, 3290.984
217.3660, 2947.553
218.5850, 2850.486
219.8030, 2616.537
221.0220, 2597.704
222.2400, 2346.986
223.4590, 2392.384
224.6770, 2423.919
225.8950, 2479.609
227.1120, 2592.412
228.3300, 2879.438
229.5480, 3302.655
230.7650, 3461.073
231.9820, 4157.752
233.1990, 4415.568
234.4160, 4910.599
235.6330, 5091.826
236.8490, 5462.193
238.0660, 5963.756
239.2820, 6345.505
240.4980, 6650.783
241.7140, 6900.611
242.9300, 7076.133
244.1460, 7153.302
245.3610, 7246.312
246.5770, 7194.121
247.7920, 7076.990
249.0070, 6996.645
250.2220, 7181.584
251.4370, 7504.842
252.6510, 7911.404
253.8660, 8509.259
255.0800, 9237.388
256.2940, 9684.781
257.5080, 10202.41
258.7220, 11291.25
259.9360, 11295.25
261.1490, 12063.54
262.3630, 11525.98
263.5760, 11125.60
264.7890, 10942.38
266.0020, 10301.33
267.2150, 9974.440
268.4270, 9386.697
269.6400, 8575.099
270.8520, 8085.639
272.0640, 7275.313
273.2760, 6496.115
274.4880, 5744.042
275.7000, 5095.089
276.9120, 4475.249
278.1230, 3880.521
279.3340, 3300.899
280.5450, 2790.382
281.7560, 2474.966
282.9670, 2074.649
284.1780, 1687.428
285.3880, 1531.300
286.5980, 1319.264
287.8090, 1121.314
289.0190, 957.5645
290.2290, 807.2568
291.4380, 686.9824
292.6480, 510.3691
293.8570, 527.8350
295.0670, 299.3770
296.2760, 276.0088
297.4850, 376.7109
298.6930, 378.4990
299.9020, 241.3535
301.1110, 81.31250
302.3190, 248.3320
303.5270, 193.4150
304.7350, 354.5693
305.9430, 310.7920
307.1510, 234.0889
308.3580, 120.4590
309.5660, 449.8887
310.7730, 407.3955
311.9800, 406.9521
313.1870, 323.5615
314.3940, 420.2207
315.6010, 390.9297
316.8070, 260.6904
318.0130, 278.4990
319.2200, 120.3574
320.4260, 121.2627
321.6310, 46.21680
322.8370, 131.7822
324.0430, 139.7471
325.2480, 81.68359
326.4540, 147.9502
327.6590, 126.4492
328.8640, 148.2881
330.0680, 270.0947
331.2730, 313.8955
332.4780, 243.6973
333.6820, 157.4893
334.8860, 201.2578
336.0900, 74.01465
337.2940, 79.74023
338.4980, 12.43457
339.7010, 27.09668
340.9050, 309.2744
342.1080, 381.6797
343.3110, 496.1240
344.5140, 558.6016
345.7170, 660.1104
346.9200, 792.6523
348.1220, 1041.229
349.3240, 1218.675
350.5270, 1434.502
351.7290, 1743.369
352.9310, 2002.085
354.1320, 2381.637
355.3340, 2756.223
356.5350, 2965.934
357.7370, 3394.174
358.9380, 3710.526
360.1390, 4106.879
361.3400, 4368.620
362.5400, 4616.168
363.7410, 4791.092
364.9410, 5321.952
366.1410, 5249.289
367.3410, 5534.053
368.5410, 5586.230
369.7410, 5568.912
370.9400, 5217.314
372.1400, 5190.770
373.3390, 5079.443
374.5380, 4919.062
375.7370, 4664.771
376.9360, 4606.967
378.1350, 4364.051
379.3330, 4466.041
380.5310, 4118.803
381.7300, 4129.930
382.9280, 4134.197
384.1260, 4120.184
385.3230, 3907.912
386.5210, 3875.730
387.7180, 3874.326
388.9160, 4038.398
390.1130, 4022.316
391.3100, 4206.697
392.5060, 4002.309
393.7030, 3986.459
394.9000, 4012.970
396.0960, 4211.559
397.2920, 4098.823
398.4880, 4032.353
399.6840, 3981.316
400.8800, 3840.512
402.0750, 3747.525
403.2710, 3801.053
404.4660, 3641.568
405.6610, 3543.391
406.8560, 3478.031
408.0510, 3175.584
409.2450, 3113.048
410.4400, 3066.211
411.6340, 2946.879
412.8280, 3056.476
414.0220, 3233.444
415.2160, 3244.041
416.4100, 3305.873
417.6030, 3408.467
418.7970, 3748.054
419.9900, 3729.637
421.1830, 4264.213
422.3760, 4577.782
423.5690, 4881.345
424.7610, 5196.897
425.9540, 5708.443
427.1460, 6343.979
428.3380, 6828.504
429.5300, 7612.016
430.7220, 8199.518
431.9140, 8925.005
433.1050, 9801.481
434.2970, 10266.94
435.4880, 11215.54
436.6790, 11929.97
437.8700, 12458.61
439.0610, 12778.83
440.2510, 13231.29
441.4420, 13534.72
442.6320, 13377.52
443.8220, 13119.74
445.0120, 12935.22
446.2020, 12571.46
447.3910, 11950.85
448.5810, 11226.72
449.7700, 10600.27
450.9600, 9670.660
452.1490, 8979.773
453.3370, 8254.266
454.5260, 7442.479
455.7150, 6695.348
456.9030, 6055.533
458.0910, 5412.707
459.2800, 4991.273
460.4670, 4251.344
461.6550, 3923.293
462.8430, 3465.214
464.0300, 3031.104
465.2180, 2735.029
466.4050, 2458.043
467.5920, 2118.693
468.7790, 1823.312
469.9650, 1554.578
471.1520, 1456.549
472.3380, 1263.025
473.5250, 1140.717
474.7110, 992.0527
475.8970, 707.9678
477.0820, 717.7725
478.2680, 590.7490
479.4540, 732.8135
480.6390, 599.1680
481.8240, 431.3691
483.0090, 460.2979
484.1940, 331.6270
485.3780, 356.1455
486.5630, 224.6201
487.7470, 194.8418
488.9320, 176.3584
490.1160, 212.8008
491.3000, 88.65820
492.4830, 132.2617
493.6670, 45.78125
494.8500, 157.9014
496.0340, 36.06543
497.2170, 12.79883
498.4000, 120.6270
499.5820, 105.4746
500.7650, 19.19727
501.9480, 70.11426
503.1300, 97.72363
504.3120, 19.71387
505.4940, 65.90918
506.6760, 31.63867
507.8580, 20.38672
509.0390, 169.2910
510.2210, 14.00781
511.4020, 30.84082
512.5830, 17.62793
513.7640, 62.53516
514.9450, 112.1104
516.1250, 30.64551
517.3060, 0.7246090
518.4860, 29.01465
519.6660, 18.39844
520.8460, 77.32617
522.0260, 6.677734
523.2060, 14.40137
524.3850, 127.5723
525.5650, 131.1035
526.7440, 2.083984
527.9230, 33.49219
529.1020, 18.95703
530.2810, 30.34082
531.4590, 16.46680
532.6380, 56.82227
533.8160, 81.61719
534.9940, 103.5889
536.1720, 97.89648
537.3500, 69.61719
538.5270, 25.46973
539.7050, 47.25195
540.8820, 11.32812
542.0590, 141.2070
543.2360, 152.8701
544.4130, 214.4980
545.5900, 264.2148
546.7660, 91.79590
547.9430, 208.8994
549.1190, 281.1709
550.2950, 161.4287
551.4710, 341.7266
552.6470, 303.9082
553.8220, 258.5352
554.9980, 185.8613
556.1730, 293.7979
557.3480, 198.9443
558.5230, 345.7686
559.6980, 293.5371
560.8730, 257.2520
562.0470, 310.9121
563.2220, 430.5176
564.3960, 318.0674
565.5700, 376.5625
566.7440, 536.0029
567.9170, 509.3887
569.0910, 518.9795
570.2640, 549.9951
571.4380, 401.3350
572.6110, 415.3809
573.7840, 300.4932
574.9570, 355.5488
576.1290, 211.5498
577.3020, 246.4951
578.4740, 201.3848
579.6460, 83.21777
580.8180, 225.9697
581.9900, 75.66699
583.1620, 179.2822
584.3330, 50.16211
585.5040, 204.2539
586.6760, 147.6143
587.8470, 70.91016
589.0180, 84.12500
590.1880, 41.26172
591.3590, 43.30566
592.5290, 103.2588
593.7000, 19.13965
594.8700, 212.9209
596.0400, 149.6475
597.2090, 204.3125
598.3790, 198.9238
599.5490, 159.4814
600.7180, 207.3799
601.8870, 249.4248
603.0560, 232.8164
604.2250, 236.1582
605.3940, 207.4473
606.5620, 202.7246
607.7300, 341.8818
608.8990, 161.0430
610.0670, 249.1582
611.2350, 194.2383
612.4020, 106.2803
613.5700, 184.2773
614.7370, 135.2598
615.9050, 150.2295
617.0720, 165.1797
618.2390, 268.0977
619.4060, 189.9922
620.5720, 135.8467
621.7390, 284.6562
622.9050, 202.4199
624.0710, 252.1377
625.2370, 95.81055
626.4030, 150.4258
627.5690, 302.9922
628.7340, 137.5127
629.9000, 86.98340
631.0650, 69.39648
632.2300, 36.53809
633.3950, 131.0293
634.5600, 95.08105
635.7240, 152.2598
636.8890, 220.5713
638.0530, 155.7988
639.2170, 138.8457
640.3810, 159.8506
641.5450, 146.8311
642.7080, 75.63379
643.8720, 171.3457
645.0350, 212.2305
646.1980, 234.7207
647.3610, 15.74316
648.5240, 117.2773
649.6870, 14.14746
650.8490, 166.9785
652.0120, 104.5840
653.1740, 17.44629
654.3360, 0.2285160
655.4980, 69.76465
656.6600, 51.33105
657.8210, 104.7871
658.9830, 21.26855
660.1440, 65.24805
661.3050, 80.82031
662.4660, 23.09082
663.6270, 114.9727
664.7870, 102.6865
665.9480, 118.3438
667.1080, 2.846680
668.2680, 33.94531
669.4280, 146.2676
670.5880, 40.88574
671.7480, 139.8877
672.9070, 26.38281
674.0670, 46.10742
675.2260, 127.3428
676.3850, 88.97070
677.5440, 133.6982
678.7030, 104.6875
679.8610, 61.87109
681.0200, 62.05664
682.1780, 3.491211
683.3360, 39.75488
684.4940, 65.54785
685.6520, 84.34961
686.8090, 32.48438
687.9670, 26.54688
689.1240, 0.6562500
690.2810, 88.83105
691.4380, 88.78418
692.5950, 57.78223
693.7520, 18.81250
694.9080, 18.63965
696.0650, 16.29199
697.2210, 87.39258
698.3770, 190.3008
699.5330, 154.1982
700.6880, 134.0850
701.8440, 161.9580
702.9990, 82.82227
704.1550, 99.67578
705.3100, 126.5195
706.4650, 88.35449
707.6190, 137.4404
708.7740, 232.9971
709.9290, 249.8066
711.0830, 299.0684
712.2370, 322.4033
713.3910, 335.1914
714.5450, 397.9756
715.6980, 368.6055
716.8520, 402.3857
718.0050, 346.9180
719.1580, 434.8652
720.3110, 405.5449
721.4640, 438.2363
722.6170, 459.9688
723.7700, 542.4014
724.9220, 461.9766
726.0740, 524.7754
727.2260, 503.2197
728.3780, 588.5273
729.5300, 628.9570
730.6810, 661.5166
731.8330, 822.3340
732.9840, 757.7520
734.1350, 846.4287
735.2860, 1166.426
736.4370, 1030.922
737.5880, 1082.632
738.7380, 950.9980
739.8880, 1038.720
741.0390, 961.5400
742.1890, 1162.387
743.3380, 1085.243
744.4880, 1298.043
745.6380, 1403.839
746.7870, 1307.734
747.9360, 1410.272
749.0850, 1459.210
750.2340, 1487.090
751.3830, 1668.839
752.5310, 1737.881
753.6800, 1985.401
754.8280, 1918.206
755.9760, 2135.304
757.1240, 2180.625
758.2720, 2511.909
759.4190, 2566.729
760.5670, 2842.096
761.7140, 2946.480
762.8610, 3012.897
764.0080, 3310.113
765.1550, 3535.364
766.3020, 3932.847
767.4480, 4280.016
768.5950, 4596.241
769.7410, 5251.032
770.8870, 5392.686
772.0330, 6016.967
773.1780, 6756.656
774.3240, 7244.214
775.4690, 8024.900
776.6140, 8879.592
777.7590, 10035.25
778.9040, 11266.03
780.0490, 12485.81
781.1940, 13885.84
782.3380, 15549.77
783.4820, 17570.74
784.6260, 19709.78
785.7700, 21702.80
786.9140, 24240.93
788.0580, 26648.80
789.2010, 29245.06
790.3450, 32471.36
791.4880, 34377.59
792.6310, 37446.17
793.7730, 39181.64
794.9160, 40977.19
796.0590, 42427.78
797.2010, 43229.02
798.3430, 43498.77
799.4850, 43574.51
800.6270, 42920.30
801.7690, 41602.16
802.9100, 40220.10
804.0520, 38283.88
805.1930, 36323.88
806.3340, 34626.94
807.4750, 32644.07
808.6160, 30678.42
809.7560, 28686.79
810.8970, 27059.13
812.0370, 25339.56
813.1770, 23876.14
814.3170, 22466.28
815.4570, 20905.65
816.5960, 19183.29
817.7360, 18173.48
818.8750, 16854.84
820.0140, 15922.40
821.1530, 15067.97
822.2920, 14274.44
823.4310, 13610.04
824.5690, 12937.08
825.7070, 12228.83
826.8460, 11613.51
827.9840, 10987.64
829.1220, 10411.55
830.2590, 10039.01
831.3970, 9578.769
832.5340, 9465.895
833.6710, 8894.800
834.8080, 8705.016
835.9450, 8321.273
837.0820, 8258.574
838.2190, 7951.918
839.3550, 7968.306
840.4910, 7771.736
841.6270, 7930.213
842.7630, 7952.734
843.8990, 8334.297
845.0350, 8607.906
846.1700, 8861.562
847.3060, 9662.271
848.4410, 10280.02
849.5760, 11062.82
850.7100, 11750.67
851.8450, 13057.56
852.9800, 14174.50
854.1140, 15585.49
855.2480, 16827.53
856.3820, 18590.62
857.5160, 19652.79
858.6500, 20850.01
859.7830, 21732.29
860.9170, 22216.65
862.0500, 22691.05
863.1830, 22588.41
864.3160, 22376.04
865.4480, 21596.62
866.5810, 20641.26
867.7130, 19308.97
868.8460, 18050.75
869.9780, 16673.60
871.1100, 14980.50
872.2410, 13452.03
873.3730, 11906.95
874.5050, 10617.70
875.6360, 9260.111
876.7670, 8336.262
877.8980, 7463.477
879.0290, 6649.723
880.1590, 6123.016
881.2900, 5605.356
882.4200, 5120.769
883.5500, 4758.592
884.6800, 4341.078
885.8100, 4139.098
886.9400, 3850.079
888.0690, 3651.781
889.1990, 3482.918
890.3280, 3264.746
891.4570, 3052.869
892.5860, 2985.693
893.7140, 2842.562
894.8430, 2796.473
895.9710, 2703.216
897.1000, 2683.127
898.2280, 2454.202
899.3560, 2513.689
900.4830, 2188.799
901.6110, 2085.021
902.7380, 2181.286
903.8660, 1930.599
904.9930, 1878.972
906.1200, 1955.395
907.2460, 1689.443
908.3730, 1660.967
909.5000, 1569.537
910.6260, 1451.148
911.7520, 1430.801
912.8780, 1459.109
914.0040, 1407.475
915.1290, 1343.256
916.2550, 1267.358
917.3800, 1208.944
918.5050, 1039.523
919.6300, 907.2383
920.7550, 763.2432
921.8800, 969.3145
923.0040, 861.4375
924.1290, 789.6172
925.2530, 779.8320
926.3770, 716.1152
927.5010, 559.4424
928.6250, 621.8281
929.7480, 589.2520
930.8720, 648.7637
931.9950, 598.3105
933.1180, 572.9082
934.2410, 584.5674
935.3640, 533.2803
936.4860, 496.0303
937.6090, 488.8154
938.7310, 456.7891
939.8530, 419.5303
940.9750, 433.4570
942.0970, 388.4902
943.2180, 390.9316
944.3400, 397.5029
945.4610, 295.6318
946.5820, 304.7998
947.7030, 328.0088
948.8240, 462.2783
949.9450, 259.6016
951.0650, 326.9863
952.1860, 358.0059
953.3060, 421.9072
954.4260, 436.4307
955.5460, 449.8545
956.6650, 447.5732
957.7850, 268.2041
958.9040, 410.9023
960.0230, 354.6338
961.1420, 520.3955
962.2610, 473.1855
963.3800, 308.0273
964.4990, 371.5615
965.6170, 301.4824
966.7350, 406.4395
967.8530, 197.4258
968.9710, 204.4404
970.0890, 406.4805
971.2070, 211.5439
972.3240, 244.6328
973.4410, 337.7471
974.5580, 182.8848
975.6750, 178.0459
976.7920, 98.23242
977.9090, 94.03027
979.0250, 325.6719
980.1410, 165.9268
981.2580, 199.4268
982.3740, 312.7256
983.4890, 138.0449
984.6050, 411.3867
985.7200, 243.0225
986.8360, 101.4092
987.9510, 204.8896
989.0660, 337.1025
990.1810, 151.5547
991.2950, 211.5117
992.4100, 212.9980
993.5240, 178.5039
994.6390, 180.0293
995.7530, 95.57227
996.8660, 38.24707
997.9800, 218.8193
999.0940, 176.4092
1000.207, 156.0166
1001.320, 91.63672
1002.433, 168.9746
1003.546, 185.6260
1004.659, 175.2871
1005.772, 23.73926
1006.884, 34.06055
1007.996, 25.07422
1009.108, 55.76562
1010.220, 62.46973
1011.332, 103.8154
1012.444, 161.1387
1013.555, 15.91797
1014.666, 114.8086
1015.777, 56.47070
1016.888, 105.7471
1017.999, 14.48047
1019.110, 85.63574
1020.220, 468.3311
1021.331, 238.4355
1022.441, 102.0361
1023.551, 51.08594
1024.661, 350.8096
1025.770, 10.10059
1026.880, 13.23438
1027.989, 49.70508
1029.098, 14.89160
1030.207, 36.47266
1031.316, 84.30371
1032.425, 29.19434
1033.533, 39.89160
1034.642, 23.41992
1035.750, 98.74121
1036.858, 50.60645
1037.966, 10.19043
1039.073, 89.37012
1040.181, 86.88770
1041.288, 23.56152
1042.396, 29.71484
1043.503, 216.1191
1044.610, 30.63086
1045.716, 25.60449
1046.823, 3.332031
1047.929, 62.39844
1049.036, 139.7920
1050.142, 34.10547
1051.248, 62.10547
1052.353, 3.541016
1053.459, 158.1748
1054.564, 129.6055
1055.670, 145.6455
1056.775, 208.2354
1057.880, 66.15137
1058.985, 86.46875
1060.089, 229.4727
1061.194, 113.4717
1062.298, 65.89160
1063.402, 58.07031
1064.506, 132.2754
1065.610, 70.72363
1066.713, 169.8271
1067.817, 200.9883
1068.920, 43.64258
1070.023, 242.7295
1071.126, 320.0410
1072.229, 269.6338
1073.332, 201.9092
1074.435, 45.66406
1075.537, 122.1250
1076.639, 182.8486
1077.741, 210.7627
1078.843, 205.7334
1079.945, 187.8018
1081.046, 170.4658
1082.148, 180.7871
1083.249, 215.6064
1084.350, 180.7344
1085.451, 272.5654
1086.551, 104.4951
1087.652, 276.0518
1088.752, 304.3379
1089.853, 238.6250
1090.953, 317.3906
1092.053, 174.4346
1093.152, 109.0332
1094.252, 77.38477
1095.351, 205.7520
1096.451, 48.56738
1097.550, 425.4297
1098.649, 282.0088
1099.748, 184.2812
1100.846, 273.5996
1101.945, 163.3662
1103.043, 311.6357
1104.141, 281.9033
1105.239, 228.4209
1106.337, 141.8623
1107.434, 206.3154
1108.532, 302.7939
1109.629, 222.9072
1110.726, 340.4043
1111.823, 179.6875
1112.920, 30.31055
1114.017, 237.2666
1115.113, 352.1309
1116.210, 379.1719
1117.306, 57.45410
1118.402, 186.9648
1119.498, 135.6123
1120.593, 76.77441
1121.689, 269.4834
1122.784, 2.037109
1123.879, 185.7861
1124.974, 190.3672
1126.069, 279.5957
1127.164, 186.1250
1128.259, 148.7803
1129.353, 293.1943
1130.447, 337.4766
1131.541, 223.5498
1132.635, 317.0068
1133.729, 38.78125
1134.822, 86.88672
1135.916, 206.0244
1137.009, 127.7979
1138.102, 276.4688
1139.195, 74.76562
1140.288, 216.9414
1141.380, 237.8320
1142.473, 270.0635
1143.565, 146.4131
1144.657, 194.1436
1145.749, 172.2090
1146.841, 232.7012
1147.932, 214.9453
1149.024, 115.5762
1150.115, 171.4385
1151.206, 163.7773
1152.297, 69.16602
1153.388, 203.8486
1154.479, 28.10645
1155.569, 98.73242
1156.659, 226.8926
1157.750, 254.4902
1158.839, 93.29199
1159.929, 113.0283
1161.019, 69.64551
1162.108, 159.7588
1163.198, 197.1270
1164.287, 23.58887
1165.376, 122.7529
1166.465, 123.1426
1167.553, 55.61523
1168.642, 77.16895
1169.730, 5.156250
1170.818, 66.90723
1171.906, 89.64746
1172.994, 161.6377
1174.082, 103.6084
1175.170, 85.63477
1176.257, 63.74707
1177.344, 134.0918
1178.431, 64.45703
1179.518, 105.2305
1180.605, 124.9629
1181.691, 63.23438
1182.778, 23.21289
1183.864, 2.150391
1184.950, 2.583984
1186.036, 6.941406
1187.122, 74.66895
1188.207, 233.0332
1189.292, 74.64062
1190.378, 187.8174
1191.463, 5.612305
1192.548, 95.85059
1193.632, 151.7227
1194.717, 138.5742
1195.801, 92.85352
1196.886, 45.20898
1197.970, 23.99707
1199.054, 72.75000
1200.137, 160.7969
1201.221, 35.42676
1202.305, 77.12793
1203.388, 110.6582
1204.471, 261.1484
1205.554, 61.40625
1206.637, 378.5234
1207.719, 186.8350
1208.802, 110.9805
1209.884, 210.5215
1210.966, 496.2021
1212.048, 89.74414
1213.130, 269.0459
1214.212, 104.7441
1215.293, 188.0723
1216.374, 161.1348
1217.456, 250.4600
1218.536, 94.43750
1219.617, 122.2744
1220.698, 41.45605
1221.778, 126.9180
1222.859, 229.5791
1223.939, 88.48340
1225.019, 29.18555
1226.099, 166.6260
1227.178, 148.5713
1228.258, 18.99805
1229.337, 87.26172
1230.417, 305.6035
1231.496, 151.9805
1232.574, 290.2109
1233.653, 261.2422
1234.732, 195.9912
1235.810, 208.6855
1236.888, 200.8652
1237.966, 188.8936
1239.044, 279.3965
1240.122, 173.8506
1241.199, 218.7471
1242.277, 286.9551
1243.354, 209.4160
1244.431, 146.2998
1245.508, 248.1328
1246.585, 168.6777
1247.661, 92.80273
1248.738, 117.6855
1249.814, 125.4414
1250.890, 111.7959
1251.966, 323.8613
1253.042, 357.7480
1254.117, 238.2588
1255.193, 95.80078
1256.268, 333.3535
1257.343, 273.8477
1258.418, 287.2344
1259.493, 146.0947
1260.567, 138.2891
1261.642, 395.4502
1262.716, 295.5566
1263.790, 220.8877
1264.864, 435.4102
1265.938, 165.8682
1267.011, 388.8672
1268.085, 330.4160
1269.158, 404.3125
1270.231, 117.5645
1271.304, 254.3867
1272.377, 215.1768
1273.450, 125.1885
1274.522, 271.3154
1275.594, 161.2041
1276.666, 178.1768
1277.738, 461.1104
1278.810, 383.0762
1279.882, 521.8232
1280.953, 563.7578
1282.025, 300.1611
1283.096, 518.1689
1284.167, 310.8105
1285.238, 99.27637
1286.308, 337.9814
1287.379, 234.8584
1288.449, 242.4658
1289.519, 172.8467
1290.589, 346.8359
1291.659, 362.2627
1292.729, 209.5303
1293.798, 420.8027
1294.868, 249.1133
1295.937, 222.2129
1297.006, 193.0400
1298.075, 152.5342
1299.143, 331.6162
1300.212, 217.5049
1301.280, 313.3711
1302.348, 480.6689
1303.416, 268.7764
1304.484, 240.0752
1305.552, 267.1641
1306.620, 249.7705
1307.687, 556.8994
1308.754, 394.1504
1309.821, 154.5010
1310.888, 479.5283
1311.955, 375.4912
1313.021, 341.1963
1314.088, 494.1348
1315.154, 239.4121
1316.220, 297.0840
1317.286, 326.3789
1318.352, 226.2217
1319.417, 190.3213
1320.483, 198.3096
1321.548, 196.9346
1322.613, 182.8311
1323.678, 177.6396
1324.743, 149.0459
1325.807, 272.7529
1326.872, 260.6104
1327.936, 177.9404
1329.000, 396.5332
1330.064, 238.1270
1331.128, 284.0977
1332.191, 468.0049
1333.255, 325.7402
1334.318, 124.8281
1335.381, 278.4980
1336.444, 76.90039
1337.507, 103.9502
1338.569, 228.5068
1339.632, 168.0049
1340.694, 214.8857
1341.756, 110.1621
1342.818, 187.9717
1343.880, 241.1035
1344.941, 168.0840
1346.003, 241.7754
1347.064, 277.4648
1348.125, 150.2842
1349.186, 83.27148
1350.247, 287.2842
1351.308, 32.22754
1352.368, 228.5264
1353.428, 67.16992
1354.489, 229.2461
1355.549, 272.3076
1356.608, 69.98633
1357.668, 252.3643
1358.727, 234.2305
1359.787, 281.6055
1360.846, 164.4922
1361.905, 247.6250
1362.964, 119.4795
1364.022, 233.1064
1365.081, 283.5293
1366.139, 134.7393
1367.197, 136.4102
1368.255, 322.4668
1369.313, 173.7520
1370.371, 1.962891
1371.428, 237.6094
1372.486, 253.7266
1373.543, 94.67676
1374.600, 62.59766
1375.657, 218.2051
1376.713, 47.55371
1377.770, 134.2471
1378.826, 148.6357
1379.882, 87.62988
1380.938, 260.6094
1381.994, 242.8809
1383.050, 227.8828
1384.106, 231.7734
1385.161, 221.2979
1386.216, 126.7578
1387.271, 288.2559
1388.326, 271.8252
1389.381, 307.9082
1390.435, 77.34277
1391.490, 154.7627
1392.544, 160.4131
1393.598, 187.5420
1394.652, 118.1641
1395.705, 28.91406
1396.759, 170.4424
1397.812, 261.1836
1398.866, 66.50879
1399.919, 159.8516
1400.972, 115.5391
1402.024, 163.8135
1403.077, 175.5898
1404.129, 173.4014
1405.181, 71.77637
1406.233, 158.5088
1407.285, 102.6377
1408.337, 85.02246
1409.389, 157.1318
1410.440, 61.19824
1411.491, 189.0635
1412.542, 225.0410
1413.593, 34.60645
1414.644, 146.9912
1415.695, 207.2559
1416.745, 85.40234
1417.795, 217.7627
1418.845, 343.3984
1419.895, 5.209961
1420.945, 184.9863
1421.995, 50.37500
1423.044, 147.1875
1424.093, 131.8125
1425.142, 138.2090
1426.191, 127.1191
1427.240, 37.66211
1428.289, 41.58008
1429.337, 116.0762
1430.385, 70.53906
1431.433, 248.8145
1432.481, 229.8438
1433.529, 221.0156
1434.577, 267.2812
1435.624, 242.4961
1436.672, 193.2812
1437.719, 245.3262
1438.766, 259.3027
1439.812, 281.3828
1440.859, 294.1895
1441.905, 291.9512
1442.952, 313.5879
1443.998, 305.7949
1445.044, 310.2129
1446.090, 258.6348
1447.135, 310.9766
1448.181, 219.0781
1449.226, 223.0000
1450.271, 259.7930
1451.316, 294.2148
1452.361, 191.8730
1453.405, 189.6230
1454.450, 265.7852
1455.494, 185.8691
1456.538, 359.9688
1457.582, 104.7051
1458.626, 262.8711
1459.670, 226.9082
1460.713, 264.9258
1461.757, 261.9395
1462.800, 240.7871
1463.843, 213.0137
1464.886, 321.3750
1465.928, 308.6152
1466.971, 314.4941
1468.013, 237.0527
1469.055, 257.1797
1470.097, 275.1465
1471.139, 155.8984
1472.181, 205.5664
1473.222, 218.4395
1474.263, 78.76758
1475.305, 383.2402
1476.346, 266.0859
1477.386, 202.4648
1478.427, 103.5742
1479.468, 117.9805
1480.508, 100.8125
1481.548, 264.6055
1482.588, 132.6582
1483.628, 229.6035
1484.668, 223.1797
1485.707, 204.8535
1486.747, 22.41797
1487.786, 123.3223
1488.825, 35.33203
1489.864, 210.5527
1490.902, 320.4609
1491.941, 200.1777
1492.979, 244.5566
1494.017, 219.1699
1495.055, 27.76953
1496.093, 119.3203
1497.131, 98.52148
1498.168, 41.64844
1499.206, 60.08984
1500.243, 92.52148
1501.280, 353.1875
1502.317, 151.2637
1503.354, 48.63281
1504.390, 323.1348
1505.426, 636.4434
1506.463, 109.8594
1507.499, 247.2949
1508.535, 268.7461
1509.570, 12.24805
1510.606, 92.21484
1511.641, 163.6094
1512.676, 129.8457
1513.711, 143.4766
1514.746, 80.25391
1515.781, 350.0664
1516.816, 254.1035
1517.850, 322.7676
1518.884, 218.7520
1519.918, 180.5449
1520.952, 226.3633
1521.986, 243.7129
1523.019, 255.1426
1524.053, 174.9180
1525.086, 275.6367
1526.119, 261.1699
1527.152, 359.3887
1528.185, 334.4922
1529.217, 187.2090
1530.250, 102.2520
1531.282, 367.0508
1532.314, 289.7148
1533.346, 121.8750
1534.377, 140.0195
1535.409, 15.17969
1536.440, 126.6035
1537.472, 189.8809
1538.503, 135.5078
1539.534, 166.9473
1540.564, 93.10547
1541.595, 228.8145
1542.625, 67.54297
1543.656, 45.78906
1544.686, 186.7891
1545.716, 50.18750
1546.745, 200.5312
1547.775, 391.2949
1548.804, 490.2930
1549.834, 501.3008
1550.863, 158.2910
1551.892, 269.5137
1552.920, 196.4707
1553.949, 111.4609
1554.977, 286.8301
1556.006, 2.890625
1557.034, 165.6680
1558.062, 148.7480
1559.089, 119.0723
1560.117, 22.37500
1561.144, 83.23438
1562.172, 128.0078
1563.199, 35.45703
1564.226, 223.6406
1565.252, 17.14844
1566.279, 83.62695
1567.305, 1.468750
1568.332, 29.56055
1569.358, 102.7207
1570.384, 0.0000000E+00
##END=



