##NAMES=Eudialyte
##RRUFFID=R050230
##IDEAL CHEMISTRY=Na_15_Ca_6_Fe_3_Zr_3_Si(Si_25_O_73_)(O,OH,H_2_O)_3_(Cl,OH)_2_
##LOCALITY=Kipawa alkaline complex, near Sheffield Lake, Villedieu Township, Temiscamingue County, Quebec, Canada
##OWNER=RRUFF
##SOURCE=Marcus Origlieri
##DESCRIPTION=Massive aggregate of red crystals
##STATUS=The identification of this mineral has been confirmed by X-ray diffraction and chemical analysis
##URL=rruff.info/R050230
##MEASURED CHEMISTRY=(Na_14.50_K_0.35_Ca_0.15_)_Σ=15_Ca_6.00_(Fe_1.86_Mn_1.01_Mg_0.13_)_Σ=3_(Zr_2.91_Ti_0.09_)_3_(Si_0.94_Nb_0.06_)_Σ=1.00_(Si_25.00_O_73_)(OH)_1.10_(H_2_O)_1.90_)_Σ=3_(Cl_1.17_(OH)_0.83_)_Σ=2_
##PIN_ID=M00392
##ORIENTATION=Laser parallel to c* (0 0 1). Fiducial mark perpendicular to laser is parallel to -a [-1 0 0]
118.1340, 0.0000000E+00
119.3650, 155.3164
120.5960, 120.3262
121.8270, 344.2090
123.0580, 339.3652
124.2880, 142.0176
125.5190, 99.96680
126.7490, 37.72656
127.9790, 83.29102
129.2090, 201.0977
130.4390, 413.0488
131.6680, 883.8574
132.8980, 1053.119
134.1270, 1473.250
135.3560, 1824.691
136.5850, 2356.264
137.8140, 2981.699
139.0430, 3678.314
140.2710, 4206.473
141.5000, 4516.613
142.7280, 4526.240
143.9560, 4302.926
145.1840, 4025.338
146.4120, 3717.229
147.6390, 3264.410
148.8670, 2947.703
150.0940, 3086.932
151.3210, 3034.910
152.5490, 3006.447
153.7750, 2712.352
155.0020, 3194.438
156.2290, 3228.439
157.4550, 3679.076
158.6810, 3894.119
159.9080, 4386.389
161.1340, 4460.734
162.3590, 4870.025
163.5850, 4711.150
164.8110, 4805.012
166.0360, 4777.537
167.2610, 4356.660
168.4860, 4047.357
169.7110, 3857.670
170.9360, 3546.697
172.1610, 3017.541
173.3850, 2715.285
174.6100, 2643.984
175.8340, 2215.652
177.0580, 2316.250
178.2820, 2467.701
179.5050, 2649.803
180.7290, 3115.713
181.9520, 3571.053
183.1760, 4312.809
184.3990, 5116.887
185.6220, 5817.193
186.8450, 7015.652
188.0670, 7863.180
189.2900, 8787.707
190.5120, 9952.162
191.7340, 10983.46
192.9560, 12272.16
194.1780, 13380.95
195.4000, 14720.67
196.6220, 16108.37
197.8430, 17567.18
199.0640, 18865.18
200.2860, 20555.41
201.5070, 21764.90
202.7270, 22852.68
203.9480, 24098.78
205.1690, 24160.21
206.3890, 25563.97
207.6090, 25648.11
208.8290, 26418.60
210.0490, 26201.50
211.2690, 26247.86
212.4890, 26085.68
213.7080, 25255.02
214.9280, 24712.91
216.1470, 23632.44
217.3660, 22527.81
218.5850, 21423.44
219.8030, 19948.71
221.0220, 18410.91
222.2400, 16727.39
223.4590, 15330.21
224.6770, 13815.35
225.8950, 12005.67
227.1120, 10659.15
228.3300, 9245.570
229.5480, 7824.746
230.7650, 6725.531
231.9820, 5907.699
233.1990, 4805.967
234.4160, 3877.057
235.6330, 3482.498
236.8490, 2761.139
238.0660, 2418.775
239.2820, 2284.316
240.4980, 2410.713
241.7140, 2157.924
242.9300, 2231.896
244.1460, 2260.621
245.3610, 2518.102
246.5770, 2735.336
247.7920, 3277.320
249.0070, 3508.055
250.2220, 3826.535
251.4370, 4444.756
252.6510, 4469.717
253.8660, 4565.414
255.0800, 4903.842
256.2940, 5153.000
257.5080, 5511.887
258.7220, 5406.010
259.9360, 5446.529
261.1490, 5184.885
262.3630, 5200.656
263.5760, 5229.139
264.7890, 5147.793
266.0020, 5253.754
267.2150, 5256.689
268.4270, 5462.492
269.6400, 5716.930
270.8520, 5924.486
272.0640, 6454.285
273.2760, 6342.623
274.4880, 6864.609
275.7000, 6884.160
276.9120, 7267.605
278.1230, 7608.883
279.3340, 7926.939
280.5450, 8232.723
281.7560, 8671.188
282.9670, 8814.293
284.1780, 9334.998
285.3880, 9673.273
286.5980, 9837.080
287.8090, 10226.39
289.0190, 10604.19
290.2290, 10651.43
291.4380, 11150.11
292.6480, 11445.20
293.8570, 11947.66
295.0670, 12357.50
296.2760, 12729.68
297.4850, 13098.18
298.6930, 13329.34
299.9020, 13601.62
301.1110, 13954.99
302.3190, 13950.63
303.5270, 14459.36
304.7350, 14618.46
305.9430, 14853.70
307.1510, 15291.96
308.3580, 15272.50
309.5660, 16185.54
310.7730, 16316.64
311.9800, 16867.68
313.1870, 17478.08
314.3940, 18188.80
315.6010, 18836.95
316.8070, 19350.94
318.0130, 19853.16
319.2200, 19965.28
320.4260, 19921.97
321.6310, 19939.88
322.8370, 19967.69
324.0430, 19966.89
325.2480, 20058.91
326.4540, 20332.52
327.6590, 20633.66
328.8640, 21061.37
330.0680, 21789.70
331.2730, 22634.29
332.4780, 23377.28
333.6820, 24792.25
334.8860, 25235.03
336.0900, 25684.55
337.2940, 25566.05
338.4980, 25863.44
339.7010, 25073.83
340.9050, 24446.06
342.1080, 22852.98
343.3110, 21923.12
344.5140, 20236.31
345.7170, 19340.46
346.9200, 17959.86
348.1220, 16878.12
349.3240, 15803.45
350.5270, 15105.59
351.7290, 14324.81
352.9310, 13896.27
354.1320, 13404.90
355.3340, 12866.57
356.5350, 12600.48
357.7370, 12077.05
358.9380, 11904.76
360.1390, 11250.31
361.3400, 10966.83
362.5400, 10660.94
363.7410, 10349.34
364.9410, 9688.312
366.1410, 9337.109
367.3410, 8869.727
368.5410, 8314.148
369.7410, 7899.373
370.9400, 7519.381
372.1400, 7145.133
373.3390, 6991.711
374.5380, 6585.018
375.7370, 6389.072
376.9360, 6243.863
378.1350, 5954.393
379.3330, 5754.648
380.5310, 5612.635
381.7300, 5533.971
382.9280, 5537.240
384.1260, 5563.924
385.3230, 5668.797
386.5210, 5809.391
387.7180, 5887.707
388.9160, 6125.742
390.1130, 6098.498
391.3100, 6206.979
392.5060, 6421.174
393.7030, 6748.092
394.9000, 6793.652
396.0960, 6881.092
397.2920, 6945.172
398.4880, 6863.973
399.6840, 6815.496
400.8800, 6957.734
402.0750, 6766.699
403.2710, 6810.387
404.4660, 6625.791
405.6610, 6756.918
406.8560, 6323.766
408.0510, 6443.336
409.2450, 6385.746
410.4400, 6192.009
411.6340, 6041.122
412.8280, 5794.077
414.0220, 5611.866
415.2160, 5501.482
416.4100, 5227.947
417.6030, 5053.234
418.7970, 4845.338
419.9900, 4854.246
421.1830, 4433.959
422.3760, 4276.466
423.5690, 4359.766
424.7610, 4280.854
425.9540, 3744.728
427.1460, 3395.383
428.3380, 3389.818
429.5300, 3186.027
430.7220, 2884.014
431.9140, 2964.771
433.1050, 2748.299
434.2970, 2592.594
435.4880, 2450.653
436.6790, 2335.479
437.8700, 2347.067
439.0610, 2054.418
440.2510, 2044.529
441.4420, 1953.398
442.6320, 1774.022
443.8220, 1595.392
445.0120, 1373.500
446.2020, 1189.336
447.3910, 1173.896
448.5810, 973.1738
449.7700, 796.1641
450.9600, 795.8574
452.1490, 573.2549
453.3370, 484.3398
454.5260, 151.1035
455.7150, 219.5088
456.9030, 23.56445
458.0910, 54.81543
459.2800, 219.6729
460.4670, 391.0977
461.6550, 430.1855
462.8430, 750.9580
464.0300, 620.5898
465.2180, 884.0117
466.4050, 964.3691
467.5920, 1115.703
468.7790, 1057.097
469.9650, 1109.523
471.1520, 1131.012
472.3380, 1058.574
473.5250, 1060.178
474.7110, 1064.821
475.8970, 1142.510
477.0820, 1027.287
478.2680, 975.0938
479.4540, 958.6230
480.6390, 861.7070
481.8240, 878.4580
483.0090, 829.1621
484.1940, 809.7949
485.3780, 703.3457
486.5630, 594.7598
487.7470, 548.9805
488.9320, 411.9824
490.1160, 412.6934
491.3000, 162.1143
492.4830, 12.88965
493.6670, 93.41016
494.8500, 32.48828
496.0340, 286.0947
497.2170, 345.3242
498.4000, 710.1885
499.5820, 810.7188
500.7650, 1120.923
501.9480, 1277.816
503.1300, 1491.404
504.3120, 1788.695
505.4940, 2158.699
506.6760, 2470.430
507.8580, 2735.897
509.0390, 3058.104
510.2210, 3271.052
511.4020, 3525.737
512.5830, 3876.164
513.7640, 4180.329
514.9450, 4364.238
516.1250, 4783.889
517.3060, 4950.281
518.4860, 5234.417
519.6660, 5516.297
520.8460, 5552.919
522.0260, 5987.287
523.2060, 6147.402
524.3850, 6507.260
525.5650, 6904.867
526.7440, 7108.223
527.9230, 7331.326
529.1020, 7697.178
530.2810, 8020.779
531.4590, 8607.134
532.6380, 9033.237
533.8160, 9800.095
534.9940, 10881.70
536.1720, 11770.06
537.3500, 12727.18
538.5270, 13657.05
539.7050, 14946.68
540.8820, 16141.06
542.0590, 17607.20
543.2360, 18886.10
544.4130, 20155.75
545.5900, 21424.17
546.7660, 23056.35
547.9430, 24441.30
549.1190, 26465.01
550.2950, 28140.50
551.4710, 30030.77
552.6470, 32016.81
553.8220, 33964.64
554.9980, 35878.28
556.1730, 37001.73
557.3480, 38429.01
558.5230, 38910.15
559.6980, 39112.14
560.8730, 39828.04
562.0470, 40411.11
563.2220, 40956.53
564.3960, 41898.14
565.5700, 42726.68
566.7440, 43543.16
567.9170, 44102.61
569.0910, 44401.05
570.2640, 43051.50
571.4380, 41506.94
572.6110, 39008.42
573.7840, 36272.97
574.9570, 32527.56
576.1290, 29379.23
577.3020, 26082.96
578.4740, 22723.76
579.6460, 20042.66
580.8180, 17529.67
581.9900, 15582.77
583.1620, 13739.05
584.3330, 12282.81
585.5040, 11087.24
586.6760, 10185.79
587.8470, 9630.608
589.0180, 9201.380
590.1880, 8936.307
591.3590, 8917.486
592.5290, 8965.720
593.7000, 9356.566
594.8700, 9594.652
596.0400, 10142.02
597.2090, 10830.20
598.3790, 11329.26
599.5490, 12086.03
600.7180, 12676.13
601.8870, 13125.13
603.0560, 13785.33
604.2250, 13887.05
605.3940, 14012.65
606.5620, 14128.40
607.7300, 13876.79
608.8990, 13553.41
610.0670, 13075.40
611.2350, 12350.83
612.4020, 12086.64
613.5700, 11336.70
614.7370, 10593.39
615.9050, 10250.49
617.0720, 9391.435
618.2390, 9138.350
619.4060, 9039.312
620.5720, 8719.101
621.7390, 8842.787
622.9050, 8965.265
624.0710, 9144.695
625.2370, 9114.228
626.4030, 9278.341
627.5690, 9150.195
628.7340, 9345.862
629.9000, 9260.088
631.0650, 9070.237
632.2300, 8988.098
633.3950, 8853.937
634.5600, 8577.472
635.7240, 8427.545
636.8890, 8105.227
638.0530, 7976.643
639.2170, 8034.582
640.3810, 7791.275
641.5450, 7618.297
642.7080, 7706.875
643.8720, 7687.246
645.0350, 7749.766
646.1980, 7719.730
647.3610, 7868.871
648.5240, 8036.898
649.6870, 8344.816
650.8490, 8835.620
652.0120, 8940.312
653.1740, 9490.890
654.3360, 10030.36
655.4980, 10382.71
656.6600, 10833.95
657.8210, 11437.08
658.9830, 11783.09
660.1440, 12439.98
661.3050, 13251.77
662.4660, 14000.43
663.6270, 14326.98
664.7870, 14956.42
665.9480, 15726.73
667.1080, 16002.93
668.2680, 16796.01
669.4280, 17488.98
670.5880, 17952.82
671.7480, 18803.55
672.9070, 19537.15
674.0670, 20263.63
675.2260, 20911.30
676.3850, 21394.25
677.5440, 22016.38
678.7030, 22608.38
679.8610, 22978.25
681.0200, 23738.01
682.1780, 24502.65
683.3360, 24935.17
684.4940, 25410.55
685.6520, 26128.42
686.8090, 26892.20
687.9670, 27296.64
689.1240, 27497.99
690.2810, 28471.97
691.4380, 28868.67
692.5950, 29153.90
693.7520, 30152.43
694.9080, 30693.05
696.0650, 31264.39
697.2210, 32106.74
698.3770, 32515.50
699.5330, 32876.30
700.6880, 33453.89
701.8440, 33174.89
702.9990, 33416.88
704.1550, 33031.96
705.3100, 32086.93
706.4650, 31038.71
707.6190, 29971.21
708.7740, 28640.00
709.9290, 27213.88
711.0830, 25608.42
712.2370, 23962.81
713.3910, 22732.94
714.5450, 21496.49
715.6980, 20397.13
716.8520, 19314.38
718.0050, 18716.25
719.1580, 18226.08
720.3110, 18029.76
721.4640, 17780.47
722.6170, 17881.90
723.7700, 17994.97
724.9220, 17942.11
726.0740, 18775.51
727.2260, 19194.01
728.3780, 19591.95
729.5300, 20442.81
730.6810, 21192.57
731.8330, 21691.18
732.9840, 22171.30
734.1350, 22936.93
735.2860, 23899.61
736.4370, 24290.55
737.5880, 24992.48
738.7380, 25556.52
739.8880, 26037.53
741.0390, 26384.13
742.1890, 26525.45
743.3380, 26583.55
744.4880, 26481.76
745.6380, 26250.92
746.7870, 25911.48
747.9360, 25460.09
749.0850, 25070.28
750.2340, 24461.71
751.3830, 24061.75
752.5310, 23502.76
753.6800, 22870.96
754.8280, 22468.82
755.9760, 21866.80
757.1240, 21379.85
758.2720, 21119.96
759.4190, 20540.13
760.5670, 20172.33
761.7140, 19824.58
762.8610, 19228.84
764.0080, 19073.12
765.1550, 18401.39
766.3020, 18226.62
767.4480, 17489.79
768.5950, 17116.88
769.7410, 16494.88
770.8870, 16004.72
772.0330, 15425.36
773.1780, 14954.77
774.3240, 14466.97
775.4690, 14181.91
776.6140, 13590.59
777.7590, 13257.99
778.9040, 12799.10
780.0490, 12392.92
781.1940, 12069.45
782.3380, 11755.67
783.4820, 11391.59
784.6260, 10977.94
785.7700, 10541.16
786.9140, 10068.45
788.0580, 9532.103
789.2010, 9013.433
790.3450, 8405.441
791.4880, 7750.134
792.6310, 7239.504
793.7730, 6912.555
794.9160, 6253.287
796.0590, 5952.695
797.2010, 5499.783
798.3430, 5151.554
799.4850, 4710.002
800.6270, 4465.133
801.7690, 4085.940
802.9100, 3921.430
804.0520, 3555.598
805.1930, 3420.445
806.3340, 3216.974
807.4750, 3054.182
808.6160, 2901.171
809.7560, 2719.882
810.8970, 2599.893
812.0370, 2426.825
813.1770, 2290.438
814.3170, 2231.733
815.4570, 2026.710
816.5960, 1830.369
817.7360, 1909.712
818.8750, 1730.737
820.0140, 1797.444
821.1530, 1708.834
822.2920, 1528.908
823.4310, 1268.660
824.5690, 1298.080
825.7070, 1038.174
826.8460, 1076.930
827.9840, 859.3525
829.1220, 669.4287
830.2590, 641.1270
831.3970, 445.4453
832.5340, 411.3340
833.6710, 268.3252
834.8080, 183.5615
835.9450, 63.19922
837.0820, 27.07129
838.2190, 60.35254
839.3550, 10.93555
840.4910, 68.82715
841.6270, 139.3496
842.7630, 304.5322
843.8990, 261.4590
845.0350, 387.1045
846.1700, 398.5283
847.3060, 530.7305
848.4410, 602.7754
849.5760, 593.6982
850.7100, 707.4863
851.8450, 625.1914
852.9800, 726.7666
854.1140, 797.2598
855.2480, 841.6992
856.3820, 821.1006
857.5160, 915.4482
858.6500, 845.7832
859.7830, 871.0605
860.9170, 935.2861
862.0500, 955.4854
863.1830, 845.6611
864.3160, 805.7461
865.4480, 773.7109
866.5810, 821.5283
867.7130, 773.2148
868.8460, 751.7354
869.9780, 813.0674
871.1100, 588.2354
872.2410, 837.1084
873.3730, 616.8086
874.5050, 749.2080
875.6360, 687.3662
876.7670, 683.2402
877.8980, 537.8174
879.0290, 737.0098
880.1590, 617.9131
881.2900, 510.4502
882.4200, 675.5566
883.5500, 387.3066
884.6800, 467.5439
885.8100, 412.2988
886.9400, 169.5332
888.0690, 160.1221
889.1990, 11.94629
890.3280, 316.7520
891.4570, 450.3350
892.5860, 757.6934
893.7140, 1014.833
894.8430, 1282.754
895.9710, 1570.459
897.1000, 1758.948
898.2280, 2189.225
899.3560, 2602.291
900.4830, 2727.148
901.6110, 2970.801
902.7380, 3371.248
903.8660, 3738.494
904.9930, 3903.541
906.1200, 4555.392
907.2460, 4699.049
908.3730, 5114.518
909.5000, 5648.798
910.6260, 6069.896
911.7520, 6357.812
912.8780, 7029.555
914.0040, 7704.124
915.1290, 8017.525
916.2550, 8781.762
917.3800, 9445.837
918.5050, 10062.75
919.6300, 10629.52
920.7550, 11174.13
921.8800, 11838.60
923.0040, 12316.93
924.1290, 12259.12
925.2530, 12738.18
926.3770, 13153.11
927.5010, 12892.91
928.6250, 12978.60
929.7480, 12952.17
930.8720, 12578.63
931.9950, 12252.98
933.1180, 11891.22
934.2410, 11332.37
935.3640, 10972.43
936.4860, 10542.39
937.6090, 10128.27
938.7310, 9337.064
939.8530, 9162.781
940.9750, 8676.430
942.0970, 8503.008
943.2180, 8123.521
944.3400, 8001.977
945.4610, 7777.381
946.5820, 7521.734
947.7030, 7093.041
948.8240, 7133.309
949.9450, 6830.539
951.0650, 6870.738
952.1860, 6659.914
953.3060, 6462.066
954.4260, 6198.203
955.5460, 5858.326
956.6650, 5959.441
957.7850, 5871.945
958.9040, 5462.434
960.0230, 5159.117
961.1420, 5058.793
962.2610, 4934.723
963.3800, 4697.832
964.4990, 4486.309
965.6170, 4463.383
966.7350, 4574.281
967.8530, 4179.373
968.9710, 4194.367
970.0890, 4066.887
971.2070, 4417.270
972.3240, 4283.801
973.4410, 4450.848
974.5580, 4559.871
975.6750, 4611.188
976.7920, 4577.645
977.9090, 4828.707
979.0250, 5022.008
980.1410, 5131.982
981.2580, 5509.828
982.3740, 5724.986
983.4890, 6062.268
984.6050, 6186.787
985.7200, 6487.869
986.8360, 6664.848
987.9510, 6840.219
989.0660, 7178.959
990.1810, 7179.740
991.2950, 7304.676
992.4100, 7475.588
993.5240, 7667.803
994.6390, 7690.398
995.7530, 7700.391
996.8660, 7463.289
997.9800, 7522.580
999.0940, 7429.482
1000.207, 7250.527
1001.320, 7226.738
1002.433, 7017.176
1003.546, 6693.193
1004.659, 6472.621
1005.772, 6241.631
1006.884, 5964.975
1007.996, 5804.674
1009.108, 5503.438
1010.220, 5322.486
1011.332, 4966.225
1012.444, 4766.543
1013.555, 4768.848
1014.666, 4362.133
1015.777, 4366.352
1016.888, 4469.109
1017.999, 4328.320
1019.110, 4248.248
1020.220, 4233.848
1021.331, 4160.172
1022.441, 4137.131
1023.551, 4251.219
1024.661, 4300.260
1025.770, 4329.744
1026.880, 4482.668
1027.989, 4289.039
1029.098, 4519.859
1030.207, 4390.131
1031.316, 4764.859
1032.425, 4731.045
1033.533, 4834.699
1034.642, 5053.820
1035.750, 5164.416
1036.858, 5527.496
1037.966, 5566.064
1039.073, 5836.129
1040.181, 6031.695
1041.288, 6148.768
1042.396, 6559.352
1043.503, 6818.449
1044.610, 7171.064
1045.716, 7327.209
1046.823, 7763.883
1047.929, 8202.090
1049.036, 8613.047
1050.142, 9224.594
1051.248, 9689.945
1052.353, 10435.33
1053.459, 11151.28
1054.564, 11684.79
1055.670, 12687.88
1056.775, 13718.55
1057.880, 14994.79
1058.985, 16287.60
1060.089, 17883.01
1061.194, 19665.00
1062.298, 21447.58
1063.402, 22635.76
1064.506, 24161.56
1065.610, 24970.97
1066.713, 25711.01
1067.817, 25787.67
1068.920, 25670.97
1070.023, 25176.90
1071.126, 24740.46
1072.229, 24609.66
1073.332, 24384.50
1074.435, 24897.99
1075.537, 25222.13
1076.639, 26370.94
1077.741, 27013.43
1078.843, 27788.61
1079.945, 28914.47
1081.046, 29118.04
1082.148, 30275.31
1083.249, 30891.29
1084.350, 31410.95
1085.451, 32314.26
1086.551, 32278.28
1087.652, 32338.97
1088.752, 32745.39
1089.853, 32659.53
1090.953, 32684.10
1092.053, 32467.99
1093.152, 32360.30
1094.252, 31934.33
1095.351, 31439.12
1096.451, 30772.70
1097.550, 29620.06
1098.649, 28351.21
1099.748, 27989.13
1100.846, 26463.87
1101.945, 25776.42
1103.043, 24905.84
1104.141, 24453.17
1105.239, 23433.43
1106.337, 22690.58
1107.434, 21978.64
1108.532, 21089.63
1109.629, 20708.58
1110.726, 19958.52
1111.823, 19424.43
1112.920, 19060.28
1114.017, 18221.11
1115.113, 17753.93
1116.210, 17301.79
1117.306, 16946.62
1118.402, 16488.51
1119.498, 16403.41
1120.593, 16172.34
1121.689, 16022.34
1122.784, 15681.42
1123.879, 15927.58
1124.974, 16011.84
1126.069, 15690.20
1127.164, 15783.64
1128.259, 15734.20
1129.353, 15051.87
1130.447, 14745.63
1131.541, 14241.43
1132.635, 13419.29
1133.729, 12440.23
1134.822, 11449.22
1135.916, 10202.23
1137.009, 9014.293
1138.102, 7867.275
1139.195, 6604.283
1140.288, 5597.219
1141.380, 4479.070
1142.473, 3601.852
1143.565, 3187.539
1144.657, 2851.062
1145.749, 2050.467
1146.841, 2009.682
1147.932, 1921.695
1149.024, 1875.527
1150.115, 1979.068
1151.206, 2198.357
1152.297, 2486.357
1153.388, 2953.973
1154.479, 3792.176
1155.569, 4084.932
1156.659, 4901.229
1157.750, 5525.043
1158.839, 6125.375
1159.929, 7171.180
1161.019, 7832.469
1162.108, 8685.219
1163.198, 9527.422
1164.287, 10428.23
1165.376, 11016.56
1166.465, 12129.27
1167.553, 12689.84
1168.642, 13314.32
1169.730, 13713.52
1170.818, 13931.00
1171.906, 14303.79
1172.994, 14021.55
1174.082, 13934.81
1175.170, 13426.18
1176.257, 13169.33
1177.344, 12719.14
1178.431, 12138.79
1179.518, 11602.54
1180.605, 11009.38
1181.691, 10370.16
1182.778, 9704.811
1183.864, 9186.785
1184.950, 8836.410
1186.036, 8216.426
1187.122, 7924.594
1188.207, 7310.881
1189.292, 6982.617
1190.378, 6536.367
1191.463, 6082.820
1192.548, 5772.570
1193.632, 5689.988
1194.717, 5175.180
1195.801, 4844.447
1196.886, 4696.508
1197.970, 4263.898
1199.054, 3697.537
1200.137, 3443.873
1201.221, 2969.877
1202.305, 2769.891
1203.388, 2405.137
1204.471, 2094.965
1205.554, 1681.998
1206.637, 1412.053
1207.719, 1222.342
1208.802, 1186.180
1209.884, 1008.699
1210.966, 1031.951
1212.048, 1021.293
1213.130, 908.5195
1214.212, 1037.635
1215.293, 1355.195
1216.374, 1556.504
1217.456, 1661.287
1218.536, 1881.053
1219.617, 2338.885
1220.698, 2895.723
1221.778, 3185.547
1222.859, 3641.818
1223.939, 4096.031
1225.019, 4520.746
1226.099, 5130.053
1227.178, 5508.223
1228.258, 5766.232
1229.337, 6355.250
1230.417, 6537.621
1231.496, 6725.150
1232.574, 7045.473
1233.653, 7183.711
1234.732, 7226.486
1235.810, 7498.070
1236.888, 7229.293
1237.966, 7448.359
1239.044, 7161.928
1240.122, 6960.281
1241.199, 6954.086
1242.277, 6693.699
1243.354, 6405.352
1244.431, 6209.240
1245.508, 5977.736
1246.585, 5601.648
1247.661, 5350.332
1248.738, 4960.500
1249.814, 5009.012
1250.890, 4762.566
1251.966, 4839.309
1253.042, 4723.262
1254.117, 4806.465
1255.193, 4724.531
1256.268, 4985.766
1257.343, 5006.557
1258.418, 5300.113
1259.493, 5623.244
1260.567, 5583.582
1261.642, 5673.410
1262.716, 5627.113
1263.790, 5927.262
1264.864, 6037.312
1265.938, 6024.207
1267.011, 5763.057
1268.085, 5838.521
1269.158, 5301.445
1270.231, 5259.623
1271.304, 5011.150
1272.377, 4812.219
1273.450, 4726.598
1274.522, 4313.373
1275.594, 4294.527
1276.666, 3832.348
1277.738, 3553.051
1278.810, 3451.547
1279.882, 3153.654
1280.953, 2951.406
1282.025, 2755.277
1283.096, 2517.283
1284.167, 2259.686
1285.238, 2123.715
1286.308, 1743.100
1287.379, 1547.812
1288.449, 1522.703
1289.519, 1221.691
1290.589, 1277.832
1291.659, 995.9863
1292.729, 995.2207
1293.798, 807.5879
1294.868, 890.5430
1295.937, 616.2266
1297.006, 567.7207
1298.075, 318.0234
1299.143, 174.4648
1300.212, 258.1035
1301.280, 178.5830
1302.348, 211.6973
1303.416, 99.78320
1304.484, 58.81641
1305.552, 46.35742
1306.620, 9.064453
1307.687, 102.9980
1308.754, 3.866211
1309.821, 159.9609
1310.888, 58.33887
1311.955, 247.8438
1313.021, 50.33984
1314.088, 240.1934
1315.154, 222.5967
1316.220, 162.7549
1317.286, 54.76562
1318.352, 286.8975
1319.417, 143.8516
1320.483, 209.2402
1321.548, 251.7715
1322.613, 285.4678
1323.678, 298.8135
1324.743, 330.9766
1325.807, 294.8174
1326.872, 336.4404
1327.936, 336.0283
1329.000, 257.6133
1330.064, 330.2363
1331.128, 246.9580
1332.191, 284.6055
1333.255, 312.1904
1334.318, 351.9170
1335.381, 336.2324
1336.444, 399.7949
1337.507, 318.6406
1338.569, 391.8164
1339.632, 402.4023
1340.694, 314.3906
1341.756, 210.7812
1342.818, 163.6426
1343.880, 203.0098
1344.941, 189.7324
1346.003, 312.3750
1347.064, 277.3730
1348.125, 225.9160
1349.186, 270.0059
1350.247, 146.7012
1351.308, 159.0156
1352.368, 340.0293
1353.428, 299.8516
1354.489, 264.5215
1355.549, 261.0879
1356.608, 101.5840
1357.668, 187.0469
1358.727, 126.4980
1359.787, 235.8770
1360.846, 236.1602
1361.905, 326.4199
1362.964, 166.6172
1364.022, 195.6914
1365.081, 180.6289
1366.139, 192.4688
1367.197, 225.1191
1368.255, 93.61719
1369.313, 86.06836
1370.371, 21.94336
1371.428, 36.32617
1372.486, 34.11914
1373.543, 166.7500
1374.600, 1.1719000E-02
1375.657, 86.56445
1376.713, 71.50586
1377.770, 10.80664
1378.826, 0.5312500
1379.882, 28.70117
1380.938, 10.09766
1381.994, 65.31055
1383.050, 46.14648
1384.106, 49.58203
1385.161, 88.60352
1386.216, 61.22852
1387.271, 12.46094
1388.326, 80.30273
1389.381, 106.7969
1390.435, 94.96289
1391.490, 21.18164
1392.544, 102.3477
1393.598, 173.4062
1394.652, 19.49023
1395.705, 135.8672
1396.759, 361.5527
1397.812, 143.5859
1398.866, 250.9199
1399.919, 376.5723
1400.972, 364.5625
1402.024, 583.8926
1403.077, 404.5996
1404.129, 556.6719
1405.181, 705.1445
1406.233, 534.0527
1407.285, 650.3848
1408.337, 894.1641
1409.389, 1033.436
1410.440, 1007.223
1411.491, 894.5254
1412.542, 1067.340
1413.593, 1031.686
1414.644, 1558.564
1415.695, 1375.014
1416.745, 1599.025
1417.795, 1626.611
1418.845, 1647.770
1419.895, 1822.354
1420.945, 2230.420
1421.995, 2172.133
1423.044, 2340.000
1424.093, 2625.742
1425.142, 2511.855
1426.191, 2928.402
1427.240, 2990.889
1428.289, 3098.805
1429.337, 3124.623
1430.385, 3303.328
1431.433, 3844.395
1432.481, 3725.902
1433.529, 4155.930
1434.577, 4431.365
1435.624, 4596.930
1436.672, 4719.877
1437.719, 4980.145
1438.766, 4955.000
1439.812, 5265.123
1440.859, 5369.027
1441.905, 5519.822
1442.952, 5932.988
1443.998, 6221.322
1445.044, 6085.316
1446.090, 6584.557
1447.135, 6652.785
1448.181, 6587.609
1449.226, 7199.121
1450.271, 7525.320
1451.316, 7684.012
1452.361, 8017.791
1453.405, 7916.953
1454.450, 8292.514
1455.494, 8295.879
1456.538, 8353.332
1457.582, 8560.090
1458.626, 8625.990
1459.670, 8886.852
1460.713, 9112.711
1461.757, 8995.555
1462.800, 9117.486
1463.843, 9037.602
1464.886, 9025.918
1465.928, 9054.625
1466.971, 9188.977
1468.013, 9042.719
1469.055, 8852.742
1470.097, 8848.332
1471.139, 9113.660
1472.181, 8799.152
1473.222, 8830.316
1474.263, 8450.914
1475.305, 8491.312
1476.346, 8409.734
1477.386, 8251.555
1478.427, 8471.430
1479.468, 8037.293
1480.508, 8160.164
1481.548, 8031.219
1482.588, 7775.309
1483.628, 7923.863
1484.668, 7683.062
1485.707, 7860.691
1486.747, 7662.953
1487.786, 7329.570
1488.825, 7725.840
1489.864, 7513.805
1490.902, 7654.988
1491.941, 7401.734
1492.979, 7563.809
1494.017, 7520.500
1495.055, 7565.703
1496.093, 7639.035
1497.131, 7849.055
1498.168, 7711.035
1499.206, 7724.426
1500.243, 7514.391
1501.280, 7593.270
1502.317, 7880.988
1503.354, 7682.609
1504.390, 7708.398
1505.426, 7692.508
1506.463, 7600.562
1507.499, 7432.473
1508.535, 7833.539
1509.570, 7421.992
1510.606, 7827.859
1511.641, 7692.645
1512.676, 7788.520
1513.711, 7293.934
1514.746, 7460.117
1515.781, 7312.633
1516.816, 7182.488
1517.850, 7317.926
1518.884, 7235.406
1519.918, 7092.562
1520.952, 6724.605
1521.986, 6599.418
1523.019, 6234.191
1524.053, 6319.527
1525.086, 6061.895
1526.119, 5812.367
1527.152, 5601.117
1528.185, 5476.246
1529.217, 5462.465
1530.250, 4953.270
1531.282, 4178.648
1532.314, 4345.273
1533.346, 3959.781
1534.377, 3836.020
1535.409, 3704.332
1536.440, 3485.332
1537.472, 3267.676
1538.503, 2853.223
1539.534, 2706.566
1540.564, 2568.379
1541.595, 2328.176
1542.625, 1734.684
1543.656, 1806.203
1544.686, 1324.238
1545.716, 1449.305
1546.745, 1161.875
1547.775, 872.3750
1548.804, 567.1289
1549.834, 356.4805
1550.863, 737.5117
1551.892, 603.9531
1552.920, 473.4766
1553.949, 442.7891
1554.977, 372.7148
1556.006, 318.2227
1557.034, 200.4336
1558.062, 108.3086
1559.089, 210.5195
1560.117, 131.3281
1561.144, 666.4570
1562.172, 735.3164
1563.199, 641.8281
1564.226, 339.6680
1565.252, 253.0625
1566.279, 271.5312
1567.305, 268.7031
1568.332, 152.9375
1569.358, 7.265625
1570.384, 26.41797
1571.409, 0.3632810
1572.435, 0.0000000E+00
##END=



