##NAMES=Ferberite
##RRUFFID=R050090
##IDEAL CHEMISTRY=Fe^2+^WO_4_
##LOCALITY=Yaogangxian mine, Cheng Zhu City, South Hunan, China
##OWNER=RRUFF
##SOURCE=Rock Currier
##DESCRIPTION=Dark gray tabular crystal
##STATUS=The identification of this mineral has been confirmed by X-ray diffraction and chemical analysis
##URL=rruff.info/R050090
##MEASURED CHEMISTRY=(Fe^2+^_0.56_Mn_0.44_)W_1.00_O_4_
##PIN_ID=L01753
##ORIENTATION=Laser parallel to a* (1 0 0). Fiducial mark perpendicular to laser is parallel to b [0 1 0]
98.41600, 0.0000000E+00
99.64900, 596.8350
100.8830, 451.2520
102.1160, 338.0664
103.3490, 15.33301
104.5820, 187.3516
105.8150, 347.5186
107.0470, 466.6445
108.2800, 412.7852
109.5120, 587.5859
110.7440, 673.6436
111.9760, 757.4209
113.2080, 968.5869
114.4400, 947.6445
115.6710, 1158.634
116.9030, 1786.081
118.1340, 2073.708
119.3650, 2029.994
120.5960, 2439.732
121.8270, 3058.251
123.0580, 3701.583
124.2880, 4467.438
125.5190, 4718.634
126.7490, 4615.902
127.9790, 4444.316
129.2090, 4321.580
130.4390, 3915.909
131.6680, 3076.288
132.8980, 2447.116
134.1270, 1630.083
135.3560, 1049.463
136.5850, 935.9746
137.8140, 769.9873
139.0430, 642.4902
140.2710, 851.5303
141.5000, 564.1562
142.7280, 448.4102
143.9560, 270.3330
145.1840, 17.01270
146.4120, 57.47559
147.6390, 164.6904
148.8670, 155.6689
150.0940, 79.42871
151.3210, 175.9873
152.5490, 360.3594
153.7750, 465.5586
155.0020, 337.5957
156.2290, 255.4814
157.4550, 151.2256
158.6810, 124.2051
159.9080, 106.6660
161.1340, 148.7500
162.3590, 269.9639
163.5850, 165.5332
164.8110, 604.1641
166.0360, 779.9717
167.2610, 920.3486
168.4860, 933.9443
169.7110, 993.1729
170.9360, 916.6602
172.1610, 1068.562
173.3850, 874.2920
174.6100, 855.5312
175.8340, 673.2959
177.0580, 729.0586
178.2820, 765.6982
179.5050, 684.4014
180.7290, 681.1641
181.9520, 719.9873
183.1760, 776.8691
184.3990, 764.3398
185.6220, 859.7949
186.8450, 805.8955
188.0670, 804.0879
189.2900, 906.6270
190.5120, 1012.268
191.7340, 1115.997
192.9560, 1246.470
194.1780, 1475.688
195.4000, 1550.166
196.6220, 1812.555
197.8430, 2056.965
199.0640, 2165.397
200.2860, 2357.854
201.5070, 2715.331
202.7270, 3000.823
203.9480, 3221.328
205.1690, 2935.846
206.3890, 2218.370
207.6090, 1711.900
208.8290, 1338.434
210.0490, 1090.967
211.2690, 921.5000
212.4890, 810.0312
213.7080, 684.5645
214.9280, 646.0967
216.1470, 438.6309
217.3660, 218.1641
218.5850, 196.6973
219.8030, 162.2305
221.0220, 26.23633
222.2400, 103.7041
223.4590, 19.82715
224.6770, 30.35840
225.8950, 62.11133
227.1120, 132.4160
228.3300, 8.944336
229.5480, 241.5293
230.7650, 81.00488
231.9820, 35.51758
233.1990, 8.983398
234.4160, 62.49316
235.6330, 41.46484
236.8490, 18.40527
238.0660, 11.64062
239.2820, 69.03516
240.4980, 28.37012
241.7140, 65.31543
242.9300, 120.1611
244.1460, 115.2705
245.3610, 98.80371
246.5770, 49.52734
247.7920, 1.293945
249.0070, 84.98633
250.2220, 119.5381
251.4370, 81.79785
252.6510, 173.3701
253.8660, 271.0049
255.0800, 180.4365
256.2940, 313.9551
257.5080, 401.0625
258.7220, 444.2529
259.9360, 311.9072
261.1490, 406.2402
262.3630, 409.7607
263.5760, 409.6279
264.7890, 535.9561
266.0020, 429.2285
267.2150, 553.5400
268.4270, 641.7842
269.6400, 567.6719
270.8520, 594.4209
272.0640, 559.4746
273.2760, 384.8926
274.4880, 347.0684
275.7000, 325.9238
276.9120, 350.6689
278.1230, 293.6494
279.3340, 160.4141
280.5450, 64.46680
281.7560, 142.2900
282.9670, 92.09863
284.1780, 102.5850
285.3880, 102.4258
286.5980, 109.1533
287.8090, 127.5820
289.0190, 170.9531
290.2290, 188.4268
291.4380, 253.0752
292.6480, 256.0127
293.8570, 329.3291
295.0670, 334.6553
296.2760, 398.6660
297.4850, 318.9658
298.6930, 271.6660
299.9020, 308.9307
301.1110, 291.2344
302.3190, 314.5322
303.5270, 344.8135
304.7350, 370.9639
305.9430, 385.9775
307.1510, 434.4688
308.3580, 442.1836
309.5660, 553.1035
310.7730, 567.9805
311.9800, 681.8242
313.1870, 956.6484
314.3940, 1148.449
315.6010, 1306.862
316.8070, 1446.827
318.0130, 1653.337
319.2200, 1716.853
320.4260, 1910.377
321.6310, 2010.897
322.8370, 1903.419
324.0430, 2022.942
325.2480, 2032.481
326.4540, 2048.023
327.6590, 2043.563
328.8640, 2041.102
330.0680, 1855.642
331.2730, 1621.179
332.4780, 1539.715
333.6820, 1320.248
334.8860, 1200.778
336.0900, 1015.300
337.2940, 1015.812
338.4980, 915.3174
339.7010, 831.8154
340.9050, 835.3086
342.1080, 829.8008
343.3110, 750.2891
344.5140, 726.7734
345.7170, 700.2549
346.9200, 702.7324
348.1220, 643.2070
349.3240, 590.6768
350.5270, 513.1426
351.7290, 513.2461
352.9310, 494.0605
354.1320, 508.5117
355.3340, 499.9590
356.5350, 487.4004
357.7370, 462.8369
358.9380, 465.2676
360.1390, 338.6924
361.3400, 334.1123
362.5400, 245.4541
363.7410, 342.7041
364.9410, 185.8086
366.1410, 247.7930
367.3410, 339.9307
368.5410, 302.1357
369.7410, 206.4785
370.9400, 142.2725
372.1400, 135.2441
373.3390, 147.3291
374.5380, 179.9053
375.7370, 120.5693
376.9360, 94.96777
378.1350, 135.1777
379.3330, 113.9326
380.5310, 29.26172
381.7300, 155.5039
382.9280, 165.6680
384.1260, 214.1953
385.3230, 92.29395
386.5210, 250.0938
387.7180, 214.4746
388.9160, 239.1865
390.1130, 349.9258
391.3100, 437.4600
392.5060, 579.3281
393.7030, 610.0605
394.9000, 535.9580
396.0960, 700.6953
397.2920, 723.8086
398.4880, 522.0449
399.6840, 530.1719
400.8800, 393.3877
402.0750, 403.5928
403.2710, 328.7881
404.4660, 235.9727
405.6610, 235.1455
406.8560, 78.30762
408.0510, 82.47461
409.2450, 79.42676
410.4400, 81.72266
411.6340, 91.83594
412.8280, 70.93945
414.0220, 124.0283
415.2160, 24.10742
416.4100, 33.82715
417.6030, 78.79004
418.7970, 22.80273
419.9900, 85.16113
421.1830, 19.11328
422.3760, 64.05078
423.5690, 1.210938
424.7610, 24.88965
425.9540, 27.73145
427.1460, 109.1309
428.3380, 3.563477
429.5300, 22.98145
430.7220, 19.58301
431.9140, 141.3262
433.1050, 121.9893
434.2970, 135.9688
435.4880, 170.2139
436.6790, 136.1953
437.8700, 255.8740
439.0610, 187.9102
440.2510, 181.1758
441.4420, 8.017578
442.6320, 150.0703
443.8220, 150.1260
445.0120, 117.3506
446.2020, 270.8955
447.3910, 291.0840
448.5810, 253.7607
449.7700, 308.3467
450.9600, 337.3535
452.1490, 337.9473
453.3370, 251.5557
454.5260, 329.5020
455.7150, 223.4814
456.9030, 369.2109
458.0910, 212.3438
459.2800, 287.8330
460.4670, 342.4541
461.6550, 414.6074
462.8430, 426.2188
464.0300, 474.0273
465.2180, 384.8184
466.4050, 310.4473
467.5920, 296.6953
468.7790, 344.4902
469.9650, 317.9941
471.1520, 451.4883
472.3380, 411.9697
473.5250, 306.6094
474.7110, 422.0674
475.8970, 434.5137
477.0820, 458.0430
478.2680, 402.4658
479.4540, 465.1104
480.6390, 466.5098
481.8240, 401.8965
483.0090, 389.2861
484.1940, 442.8574
485.3780, 481.2881
486.5630, 506.8936
487.7470, 584.4277
488.9320, 456.8896
490.1160, 481.5049
491.3000, 556.8955
492.4830, 655.1758
493.6670, 759.5410
494.8500, 516.7979
496.0340, 654.1924
497.2170, 585.4248
498.4000, 710.6455
499.5820, 942.8535
500.7650, 925.0508
501.9480, 860.3340
503.1300, 988.5068
504.3120, 913.6680
505.4940, 1106.817
506.6760, 997.9551
507.8580, 914.0820
509.0390, 970.2129
510.2210, 847.3672
511.4020, 920.5156
512.5830, 846.6553
513.7640, 987.7119
514.9450, 861.7314
516.1250, 981.7988
517.3060, 897.9941
518.4860, 829.1123
519.6660, 866.1172
520.8460, 962.2969
522.0260, 755.3789
523.2060, 932.1016
524.3850, 959.2793
525.5650, 913.4531
526.7440, 1008.639
527.9230, 962.6631
529.1020, 1039.865
530.2810, 1012.092
531.4590, 1061.346
532.6380, 970.6191
533.8160, 921.8867
534.9940, 1009.147
536.1720, 991.4502
537.3500, 1011.642
538.5270, 1007.873
539.7050, 977.4951
540.8820, 967.1729
542.0590, 912.5020
543.2360, 884.6875
544.4130, 854.8613
545.5900, 761.0254
546.7660, 704.1768
547.9430, 670.3164
549.1190, 656.3506
550.2950, 864.3906
551.4710, 536.4082
552.6470, 457.4238
553.8220, 308.4736
554.9980, 504.4238
556.1730, 417.4863
557.3480, 360.2207
558.5230, 373.5693
559.6980, 252.1387
560.8730, 244.9834
562.0470, 213.9365
563.2220, 142.6045
564.3960, 176.4492
565.5700, 130.9688
566.7440, 217.6729
567.9170, 192.3467
569.0910, 130.2988
570.2640, 170.8545
571.4380, 300.4883
572.6110, 0.3798830
573.7840, 199.2861
574.9570, 44.81543
576.1290, 22.03516
577.3020, 44.12695
578.4740, 87.33594
579.6460, 13.61426
580.8180, 19.07520
581.9900, 95.75391
583.1620, 42.00293
584.3330, 190.3408
585.5040, 18.19238
586.6760, 87.29590
587.8470, 18.15527
589.0180, 26.40723
590.1880, 105.0068
591.3590, 29.31836
592.5290, 57.42383
593.7000, 42.16309
594.8700, 35.05469
596.0400, 28.91602
597.2090, 89.03516
598.3790, 112.7803
599.5490, 9.324219
600.7180, 54.54688
601.8870, 63.51172
603.0560, 23.53320
604.2250, 59.40918
605.3940, 60.42383
606.5620, 95.34668
607.7300, 35.73730
608.8990, 48.47754
610.0670, 154.6689
611.2350, 214.4150
612.4020, 230.2070
613.5700, 70.44336
614.7370, 137.3574
615.9050, 113.4238
617.0720, 85.75293
618.2390, 184.5527
619.4060, 50.28320
620.5720, 147.0566
621.7390, 151.5957
622.9050, 100.0547
624.0710, 52.83789
625.2370, 82.61328
626.4030, 37.38086
627.5690, 50.14160
628.7340, 63.89453
629.9000, 23.64160
631.0650, 73.38086
632.2300, 116.1123
633.3950, 71.84082
634.5600, 124.6055
635.7240, 57.27734
636.8890, 180.9873
638.0530, 180.6924
639.2170, 244.3926
640.3810, 181.0879
641.5450, 64.77832
642.7080, 113.4648
643.8720, 110.5664
645.0350, 141.6729
646.1980, 193.4961
647.3610, 266.1641
648.5240, 251.8281
649.6870, 296.4893
650.8490, 340.1455
652.0120, 323.7969
653.1740, 313.4453
654.3360, 279.0898
655.4980, 419.7305
656.6600, 575.3672
657.8210, 698.0010
658.9830, 281.6309
660.1440, 424.2559
661.3050, 338.8789
662.4660, 547.4961
663.6270, 565.1133
664.7870, 502.7256
665.9480, 656.3340
667.1080, 632.9375
668.2680, 619.5391
669.4280, 650.1367
670.5880, 712.7295
671.7480, 861.3184
672.9070, 836.9023
674.0670, 1081.482
675.2260, 915.0586
676.3850, 944.6309
677.5440, 1060.199
678.7030, 950.7637
679.8610, 1050.325
681.0200, 1169.884
682.1780, 1021.438
683.3360, 1213.986
684.4940, 1196.535
685.6520, 1356.078
686.8090, 1410.618
687.9670, 1315.157
689.1240, 1332.694
690.2810, 1442.229
691.4380, 1359.761
692.5950, 1483.309
693.7520, 1386.865
694.9080, 1281.399
696.0650, 1158.955
697.2210, 1136.510
698.3770, 908.0713
699.5330, 1018.650
700.6880, 1048.233
701.8440, 818.8154
702.9990, 922.3965
704.1550, 784.9795
705.3100, 732.5664
706.4650, 587.1777
707.6190, 654.8047
708.7740, 491.4453
709.9290, 523.0869
711.0830, 393.7373
712.2370, 362.9727
713.3910, 388.6270
714.5450, 251.0273
715.6980, 414.2217
716.8520, 344.6719
718.0050, 240.4277
719.1580, 147.8301
720.3110, 226.0137
721.4640, 98.61523
722.6170, 137.9932
723.7700, 20.35840
724.9220, 53.54297
726.0740, 91.39551
727.2260, 26.59570
728.3780, 119.3105
729.5300, 105.1074
730.6810, 38.52344
731.8330, 45.25391
732.9840, 20.00977
734.1350, 78.57715
735.2860, 64.20703
736.4370, 5.396484
737.5880, 25.62305
738.7380, 125.4932
739.8880, 80.22949
741.0390, 195.4316
742.1890, 85.17090
743.3380, 8.280273
744.4880, 45.27930
745.6380, 175.0029
746.7870, 119.1406
747.9360, 227.7266
749.0850, 146.6045
750.2340, 183.4912
751.3830, 146.3867
752.5310, 317.1172
753.6800, 372.0225
754.8280, 357.9326
755.9760, 652.7520
757.1240, 467.6709
758.2720, 528.3604
759.4190, 469.2910
760.5670, 609.2334
761.7140, 593.1807
762.8610, 710.9521
764.0080, 763.8633
765.1550, 821.6016
766.3020, 791.4062
767.4480, 797.2812
768.5950, 1020.994
769.7410, 957.9258
770.8870, 885.9580
772.0330, 1003.900
773.1780, 825.9453
774.3240, 840.8467
775.4690, 766.9062
776.6140, 759.9756
777.7590, 736.0498
778.9040, 681.9395
780.0490, 676.0459
781.1940, 620.2051
782.3380, 651.2998
783.4820, 683.3975
784.6260, 709.5010
785.7700, 672.5010
786.9140, 608.9443
788.0580, 580.8457
789.2010, 500.9717
790.3450, 460.1045
791.4880, 609.2422
792.6310, 631.3857
793.7730, 553.5332
794.9160, 556.6846
796.0590, 498.8408
797.2010, 490.0010
798.3430, 415.1641
799.4850, 435.5029
800.6270, 407.5850
801.7690, 484.6807
802.9100, 388.8604
804.0520, 441.0449
805.1930, 434.2324
806.3340, 609.4238
807.4750, 579.9785
808.6160, 610.0166
809.7560, 626.0195
810.8970, 623.2246
812.0370, 677.4336
813.1770, 731.7549
814.3170, 593.9697
815.4570, 621.1885
816.5960, 552.5732
817.7360, 665.7998
818.8750, 713.1670
820.0140, 813.4014
821.1530, 775.6396
822.2920, 788.8799
823.4310, 891.2939
824.5690, 862.8115
825.7070, 926.3340
826.8460, 813.8232
827.9840, 968.2656
829.1220, 686.4805
830.2590, 896.0576
831.3970, 843.5518
832.5340, 1013.852
833.6710, 1083.352
834.8080, 973.8691
835.9450, 1204.326
837.0820, 1208.909
838.2190, 1350.391
839.3550, 1502.058
840.4910, 1511.840
841.6270, 1647.260
842.7630, 1691.064
843.8990, 1819.952
845.0350, 1895.069
846.1700, 1971.588
847.3060, 2061.900
848.4410, 2245.869
849.5760, 2484.233
850.7100, 2676.901
851.8450, 2830.676
852.9800, 3092.621
854.1140, 3294.341
855.2480, 3589.984
856.3820, 3840.666
857.5160, 4308.020
858.6500, 4802.592
859.7830, 5189.203
860.9170, 5750.668
862.0500, 6504.250
863.1830, 6992.182
864.3160, 7815.014
865.4480, 8554.692
866.5810, 9540.640
867.7130, 10917.86
868.8460, 12248.91
869.9780, 13669.28
871.1100, 15161.14
872.2410, 16637.22
873.3730, 18400.48
874.5050, 20167.19
875.6360, 22148.21
876.7670, 22769.26
877.8980, 23161.34
879.0290, 23385.12
880.1590, 22738.99
881.2900, 21901.55
882.4200, 20812.50
883.5500, 19190.71
884.6800, 17503.88
885.8100, 15735.96
886.9400, 13948.76
888.0690, 12223.75
889.1990, 10660.39
890.3280, 9127.032
891.4570, 8022.680
892.5860, 6908.318
893.7140, 5892.201
894.8430, 5161.973
895.9710, 4720.353
897.1000, 3994.572
898.2280, 3514.874
899.3560, 3212.873
900.4830, 2850.115
901.6110, 2701.954
902.7380, 2408.039
903.8660, 2053.606
904.9930, 1945.293
906.1200, 1751.859
907.2460, 1672.508
908.3730, 1539.631
909.5000, 1334.219
910.6260, 1201.883
911.7520, 1189.329
912.8780, 1169.198
914.0040, 1163.990
915.1290, 949.4668
916.2550, 924.9385
917.3800, 837.6055
918.5050, 905.0537
919.6300, 917.5244
920.7550, 835.4912
921.8800, 642.9385
923.0040, 538.9023
924.1290, 540.6289
925.2530, 420.5303
926.3770, 458.9023
927.5010, 461.7002
928.6250, 454.0566
929.7480, 524.5186
930.8720, 434.8457
931.9950, 239.1582
933.1180, 490.6045
934.2410, 478.8867
935.3640, 139.1543
936.4860, 271.5869
937.6090, 259.8223
938.7310, 384.0459
939.8530, 232.2529
940.9750, 224.4521
942.0970, 276.6348
943.2180, 322.8008
944.3400, 163.9512
945.4610, 228.0859
946.5820, 124.2119
947.7030, 88.31055
948.8240, 220.3906
949.9450, 143.5938
951.0650, 79.63770
952.1860, 175.1855
953.3060, 88.40234
954.4260, 137.3896
955.5460, 177.3613
956.6650, 191.4951
957.7850, 85.78223
958.9040, 63.09766
960.0230, 64.12500
961.1420, 74.36328
962.2610, 87.43652
963.3800, 53.47656
964.4990, 60.25781
965.6170, 82.43555
966.7350, 37.23535
967.8530, 86.71582
968.9710, 84.81055
970.0890, 101.0361
971.2070, 72.92969
972.3240, 98.75684
973.4410, 56.65723
974.5580, 30.71094
975.6750, 1.660156
976.7920, 61.32812
977.9090, 41.49414
979.0250, 44.62793
980.1410, 102.4463
981.2580, 13.62207
982.3740, 87.29492
983.4890, 68.10645
984.6050, 80.29492
985.7200, 59.68652
986.8360, 20.37695
987.9510, 32.97656
989.0660, 30.92578
990.1810, 62.92773
991.2950, 7.000977
992.4100, 127.8945
993.5240, 118.5898
994.6390, 175.7354
995.7530, 140.5547
996.8660, 64.35254
997.9800, 29.87402
999.0940, 128.8438
1000.207, 73.68066
1001.320, 17.65723
1002.433, 54.34570
1003.546, 15.97461
1004.659, 21.85742
1005.772, 72.87305
1006.884, 97.02539
1007.996, 55.51660
1009.108, 68.08594
1010.220, 43.25977
1011.332, 76.98828
1012.444, 21.69238
1013.555, 109.9688
1014.666, 1.901367
1015.777, 119.6943
1016.888, 52.28223
1017.999, 11.18945
1019.110, 85.87988
1020.220, 13.99219
1021.331, 107.2539
1022.441, 208.1777
1023.551, 260.5371
1024.661, 249.0029
1025.770, 281.3770
1026.880, 137.8330
1027.989, 117.8418
1029.098, 10.44531
1030.207, 22.86719
1031.316, 8.252930
1032.425, 14.34082
1033.533, 9.245117
1034.642, 18.02246
1035.750, 78.22949
1036.858, 218.4482
1037.966, 173.0127
1039.073, 180.7383
1040.181, 197.2412
1041.288, 62.39355
1042.396, 187.5098
1043.503, 23.03320
1044.610, 29.59082
1045.716, 113.6768
1046.823, 136.1689
1047.929, 243.5449
1049.036, 226.9619
1050.142, 161.5537
1051.248, 268.6055
1052.353, 202.9023
1053.459, 81.80176
1054.564, 202.5410
1055.670, 76.45898
1056.775, 136.7939
1057.880, 91.42969
1058.985, 215.5000
1060.089, 110.0684
1061.194, 257.5703
1062.298, 189.3828
1063.402, 344.1777
1064.506, 265.6338
1065.610, 183.2148
1066.713, 220.8213
1067.817, 230.1582
1068.920, 175.4648
1070.023, 274.0322
1071.126, 221.9590
1072.229, 480.2891
1073.332, 378.3516
1074.435, 369.7617
1075.537, 267.2500
1076.639, 224.4609
1077.741, 381.6064
1078.843, 218.6201
1079.945, 234.7129
1081.046, 346.5537
1082.148, 187.5117
1083.249, 337.3877
1084.350, 96.12988
1085.451, 171.1768
1086.551, 312.0879
1087.652, 230.3564
1088.752, 178.3398
1089.853, 137.2617
1090.953, 125.5654
1092.053, 189.0918
1093.152, 133.4053
1094.252, 167.7217
1095.351, 159.0547
1096.451, 32.58398
1097.550, 115.7188
1098.649, 73.58496
1099.748, 21.56738
1100.846, 110.6807
1101.945, 73.89941
1103.043, 147.9932
1104.141, 157.7227
1105.239, 50.94336
1106.337, 175.7373
1107.434, 110.3877
1108.532, 87.66797
1109.629, 110.9346
1110.726, 23.38574
1111.823, 123.5771
1112.920, 26.66504
1114.017, 41.25391
1115.113, 59.83301
1116.210, 233.2939
1117.306, 261.7754
1118.402, 124.1357
1119.498, 319.2988
1120.593, 245.8975
1121.689, 205.1338
1122.784, 194.5332
1123.879, 293.2324
1124.974, 160.6895
1126.069, 302.9316
1127.164, 274.5098
1128.259, 244.9033
1129.353, 316.0146
1130.447, 284.2354
1131.541, 153.5693
1132.635, 223.5859
1133.729, 93.35742
1134.822, 175.2295
1135.916, 37.77148
1137.009, 130.1377
1138.102, 35.99414
1139.195, 148.5488
1140.288, 104.6650
1141.380, 23.59082
1142.473, 193.1406
1143.565, 5.158203
1144.657, 44.82422
1145.749, 222.5928
1146.841, 132.7393
1147.932, 181.4551
1149.024, 13.90430
1150.115, 30.64160
1151.206, 90.86719
1152.297, 18.37695
1153.388, 46.84570
1154.479, 5.983398
1155.569, 45.03516
1156.659, 47.53711
1157.750, 3.733398
1158.839, 59.71582
1159.929, 162.0557
1161.019, 116.1387
1162.108, 116.1582
1163.198, 105.6162
1164.287, 20.24609
1165.376, 38.15039
1166.465, 9.573242
1167.553, 33.57715
1168.642, 61.89551
1169.730, 15.22070
1170.818, 60.55078
1171.906, 184.9277
1172.994, 166.7188
1174.082, 31.01270
1175.170, 12.19727
1176.257, 114.5674
1177.344, 62.51855
1178.431, 28.42773
1179.518, 27.34570
1180.605, 6.153320
1181.691, 81.81055
1182.778, 14.95703
1183.864, 102.0488
1184.950, 235.6133
1186.036, 80.66309
1187.122, 67.83594
1188.207, 159.8525
1189.292, 17.33691
1190.378, 148.3223
1191.463, 58.14551
1192.548, 53.79004
1193.632, 49.59082
1194.717, 122.4941
1195.801, 84.38184
1196.886, 70.10254
1197.970, 191.9531
1199.054, 216.7881
1200.137, 54.42480
1201.221, 7.769531
1202.305, 95.03125
1203.388, 41.18262
1204.471, 59.57520
1205.554, 33.32031
1206.637, 91.04785
1207.719, 99.08984
1208.802, 144.4629
1209.884, 95.14258
1210.966, 166.8184
1212.048, 157.4824
1213.130, 112.9932
1214.212, 107.7998
1215.293, 64.65918
1216.374, 56.12988
1217.456, 0.2617190
1218.536, 55.34961
1219.617, 61.77148
1220.698, 147.0410
1221.778, 231.2666
1222.859, 352.7520
1223.939, 258.0010
1225.019, 254.3857
1226.099, 144.7246
1227.178, 214.3652
1228.258, 267.5332
1229.337, 41.52148
1230.417, 117.8496
1231.496, 79.02539
1232.574, 188.0391
1233.653, 262.4141
1234.732, 183.8955
1235.810, 318.9492
1236.888, 268.5215
1237.966, 293.8115
1239.044, 223.0049
1240.122, 218.7842
1241.199, 198.9336
1242.277, 198.5488
1243.354, 152.6426
1244.431, 175.7148
1245.508, 151.8584
1246.585, 243.5918
1247.661, 290.3203
1248.738, 323.7207
1249.814, 273.4434
1250.890, 277.4824
1251.966, 256.9102
1253.042, 157.6602
1254.117, 144.4072
1255.193, 19.97656
1256.268, 109.7539
1257.343, 24.52246
1258.418, 26.81543
1259.493, 95.87793
1260.567, 101.5811
1261.642, 224.1318
1262.716, 334.6709
1263.790, 395.4766
1264.864, 548.7705
1265.938, 482.8359
1267.011, 484.3037
1268.085, 332.3701
1269.158, 465.9600
1270.231, 296.3984
1271.304, 236.7734
1272.377, 409.4961
1273.450, 303.1113
1274.522, 402.3369
1275.594, 559.0547
1276.666, 479.6465
1277.738, 428.3926
1278.810, 518.5459
1279.882, 601.1064
1280.953, 429.5811
1282.025, 511.8594
1283.096, 398.4326
1284.167, 484.5273
1285.238, 482.2266
1286.308, 542.4736
1287.379, 595.2080
1288.449, 724.6270
1289.519, 700.2666
1290.589, 698.7744
1291.659, 742.2969
1292.729, 623.7842
1293.798, 734.9111
1294.868, 756.1104
1295.937, 676.8320
1297.006, 584.4922
1298.075, 524.7637
1299.143, 563.4971
1300.212, 749.0674
1301.280, 691.6123
1302.348, 785.1436
1303.416, 856.2207
1304.484, 773.2109
1305.552, 807.7598
1306.620, 997.7148
1307.687, 638.7373
1308.754, 860.6689
1309.821, 662.3779
1310.888, 683.5781
1311.955, 891.6221
1313.021, 827.8760
1314.088, 698.2373
1315.154, 823.3770
1316.220, 849.0674
1317.286, 883.3027
1318.352, 891.3809
1319.417, 938.1875
1320.483, 957.2070
1321.548, 849.4102
1322.613, 861.0312
1323.678, 939.7754
1324.743, 730.0459
1325.807, 651.3203
1326.872, 777.6436
1327.936, 986.4395
1329.000, 1155.674
1330.064, 1137.577
1331.128, 1182.269
1332.191, 1038.011
1333.255, 1131.138
1334.318, 1042.505
1335.381, 1011.306
1336.444, 844.9844
1337.507, 857.8604
1338.569, 1098.725
1339.632, 944.7080
1340.694, 987.6709
1341.756, 1159.045
1342.818, 970.6621
1343.880, 1004.291
1344.941, 1153.667
1346.003, 1101.550
1347.064, 986.1064
1348.125, 931.6689
1349.186, 987.0205
1350.247, 1009.965
1351.308, 1002.174
1352.368, 1080.475
1353.428, 1003.475
1354.489, 1167.871
1355.549, 1149.147
1356.608, 1104.398
1357.668, 1091.055
1358.727, 1106.273
1359.787, 958.8652
1360.846, 1131.760
1361.905, 1155.139
1362.964, 1106.128
1364.022, 964.9307
1365.081, 885.4238
1366.139, 1101.579
1367.197, 1086.379
1368.255, 1093.146
1369.313, 1186.438
1370.371, 1067.024
1371.428, 1090.352
1372.486, 1109.440
1373.543, 1059.894
1374.600, 1058.301
1375.657, 982.5967
1376.713, 1017.972
1377.770, 868.7041
1378.826, 803.4023
1379.882, 979.6943
1380.938, 1126.433
1381.994, 906.0117
1383.050, 1180.912
1384.106, 983.6582
1385.161, 984.4004
1386.216, 1023.087
1387.271, 1011.333
1388.326, 995.9053
1389.381, 894.1084
1390.435, 916.2461
1391.490, 768.9873
1392.544, 862.9561
1393.598, 852.9053
1394.652, 795.9727
1395.705, 846.8887
1396.759, 853.7969
1397.812, 872.4668
1398.866, 648.2578
1399.919, 876.4580
1400.972, 717.9326
1402.024, 563.5049
1403.077, 915.0498
1404.129, 531.6035
1405.181, 662.9854
1406.233, 646.9512
1407.285, 776.7939
1408.337, 721.5898
1409.389, 573.3418
1410.440, 767.0508
1411.491, 708.7031
1412.542, 444.2988
1413.593, 727.8945
1414.644, 534.7852
1415.695, 524.1855
1416.745, 523.0938
1417.795, 547.4141
1418.845, 473.5605
1419.895, 406.6270
1420.945, 479.6094
1421.995, 533.5234
1423.044, 472.3594
1424.093, 551.1055
1425.142, 521.7617
1426.191, 504.3145
1427.240, 569.7988
1428.289, 402.1797
1429.337, 372.4902
1430.385, 424.7266
1431.433, 264.8945
1432.481, 343.9707
1433.529, 360.9648
1434.577, 405.8809
1435.624, 375.7246
1436.672, 494.4941
1437.719, 267.2012
1438.766, 385.9258
1439.812, 501.4785
1440.859, 350.4531
1441.905, 298.4102
1442.952, 91.47070
1443.998, 52.77344
1445.044, 26.84961
1446.090, 12.89062
1447.135, 51.26367
1448.181, 133.2402
1449.226, 170.6719
1450.271, 248.2637
1451.316, 235.4004
1452.361, 282.4531
1453.405, 171.0137
1454.450, 53.57812
1455.494, 29.85938
1456.538, 139.6895
1457.582, 50.22852
1458.626, 77.76562
1459.670, 196.2988
1460.713, 152.7832
1461.757, 46.19531
1462.800, 170.5234
1463.843, 148.8184
1464.886, 149.1016
1465.928, 155.3633
1466.971, 290.8145
1468.013, 229.6543
1469.055, 185.3359
1470.097, 4.826172
1471.139, 32.12109
1472.181, 59.55859
1473.222, 84.79102
1474.263, 13.17188
1475.305, 54.41406
1476.346, 39.96094
1477.386, 104.4863
1478.427, 193.9785
1479.468, 308.4492
1480.508, 127.9043
1481.548, 45.33008
1482.588, 63.73242
1483.628, 40.88867
1484.668, 118.4727
1485.707, 172.1855
1486.747, 226.8672
1487.786, 44.57227
1488.825, 86.70703
1489.864, 298.9766
1490.902, 158.2480
1491.941, 228.5293
1492.979, 236.8184
1494.017, 147.1250
1495.055, 283.4414
1496.093, 147.7734
1497.131, 178.1348
1498.168, 306.5293
1499.206, 151.9590
1500.243, 158.4355
1501.280, 150.9668
1502.317, 261.5547
1503.354, 270.9648
1504.390, 369.6934
1505.426, 264.5039
1506.463, 136.1445
1507.499, 264.1250
1508.535, 262.4062
1509.570, 269.1855
1510.606, 261.4766
1511.641, 169.1426
1512.676, 287.2441
1513.711, 389.9551
1514.746, 389.3164
1515.781, 242.5469
1516.816, 601.5527
1517.850, 531.1055
1518.884, 396.3828
1519.918, 575.2773
1520.952, 498.0488
1521.986, 238.4512
1523.019, 475.6895
1524.053, 271.2500
1525.086, 205.4824
1526.119, 450.0527
1527.152, 435.9746
1528.185, 386.6289
1529.217, 529.1504
1530.250, 489.5996
1531.282, 594.4082
1532.314, 395.2285
1533.346, 529.7148
1534.377, 548.5996
1535.409, 285.0840
1536.440, 298.5566
1537.472, 262.3418
1538.503, 174.4277
1539.534, 368.0234
1540.564, 127.7148
1541.595, 245.3691
1542.625, 547.4160
1543.656, 650.0176
1544.686, 363.0332
1545.716, 522.8516
1546.745, 472.9863
1547.775, 718.6719
1548.804, 506.2793
1549.834, 849.8477
1550.863, 205.2363
1551.892, 459.8457
1552.920, 528.8926
1553.949, 596.3516
1554.977, 659.8203
1556.006, 616.1680
1557.034, 617.3926
1558.062, 513.8125
1559.089, 416.9531
1560.117, 395.9551
1561.144, 168.4121
1562.172, 145.0000
1563.199, 279.9453
1564.226, 3.689453
1565.252, 55.46484
1566.279, 4.515625
1567.305, 310.9727
1568.332, 355.8223
1569.358, 220.2246
1570.384, 267.9648
1571.409, 27.12305
1572.435, 0.0000000E+00
##END=



