##NAMES=Fluorapophyllite-(K)
##RRUFFID=R060554
##IDEAL CHEMISTRY=KCa_4_Si_8_O_20_F&#183;8H_2_O
##LOCALITY=unknown
##OWNER=RRUFF
##SOURCE=Gemological Institute of America
##DESCRIPTION=Colorless polished fragment
##STATUS=The identification of this mineral has been confirmed by X-ray diffraction and chemical analysis
##URL=rruff.info/R060554
##MEASURED CHEMISTRY=(K_0.88_Na_0.12_)Ca_4.00_Si_8.00_O_20_F_1.00_Â·8H2O
##PIN_ID=L00812
##ORIENTATION=Laser parallel to -a* (-1 0 0). Fiducial mark perpendicular to laser is parallel to -c [0 0 -1]
53.91000, 0.0000000E+00
55.14900, 78.33990
56.38700, 146.7269
57.62600, 245.6036
58.86400, 301.7425
60.10300, 342.5717
61.34100, 252.2732
62.57900, 122.9791
63.81700, 9.368774
65.05400, 55.26929
66.29200, 108.7398
67.52900, 113.8163
68.76700, 28.18713
70.00400, 63.53320
71.24100, 218.7927
72.47700, 411.0952
73.71400, 729.9813
74.95100, 1188.004
76.18700, 1978.749
77.42300, 2961.846
78.65900, 4315.992
79.89500, 6052.958
81.13100, 8192.538
82.36700, 11021.54
83.60200, 13597.78
84.83700, 16363.08
86.07200, 18486.28
87.30800, 20610.21
88.54200, 21763.75
89.77700, 21741.75
91.01200, 21302.09
92.24600, 19647.59
93.48000, 17099.07
94.71400, 14655.35
95.94800, 12968.31
97.18200, 11855.86
98.41600, 12001.90
99.64900, 13373.37
100.8830, 16253.26
102.1160, 20839.63
103.3490, 26834.56
104.5820, 33043.07
105.8150, 36633.09
107.0470, 36487.57
108.2800, 32282.44
109.5120, 26303.62
110.7440, 20742.05
111.9760, 16409.68
113.2080, 13158.45
114.4400, 11206.32
115.6710, 10639.23
116.9030, 10578.15
118.1340, 10703.04
119.3650, 11867.86
120.5960, 13561.58
121.8270, 15249.17
123.0580, 16203.60
124.2880, 16189.83
125.5190, 15425.84
126.7490, 14988.60
127.9790, 14908.94
129.2090, 15139.34
130.4390, 15105.77
131.6680, 14742.22
132.8980, 12937.69
134.1270, 10965.21
135.3560, 9068.914
136.5850, 7585.023
137.8140, 6244.411
139.0430, 5293.089
140.2710, 4368.084
141.5000, 3665.410
142.7280, 3306.085
143.9560, 3084.121
145.1840, 2985.701
146.4120, 3071.428
147.6390, 3257.765
148.8670, 3762.892
150.0940, 4218.782
151.3210, 5346.290
152.5490, 6378.097
153.7750, 8066.867
155.0020, 10285.42
156.2290, 13248.49
157.4550, 16549.88
158.6810, 20114.49
159.9080, 22901.29
161.1340, 24029.30
162.3590, 23299.51
163.5850, 20901.93
164.8110, 17893.56
166.0360, 14694.39
167.2610, 11621.43
168.4860, 8806.676
169.7110, 6864.136
170.9360, 5448.803
172.1610, 4598.681
173.3850, 4280.770
174.6100, 4451.065
175.8340, 5020.571
177.0580, 6631.283
178.2820, 8588.201
179.5050, 11297.32
180.7290, 14868.64
181.9520, 18342.16
183.1760, 21568.88
184.3990, 23889.78
185.6220, 23629.88
186.8450, 21959.17
188.0670, 19513.65
189.2900, 17251.31
190.5120, 15241.16
191.7340, 13623.18
192.9560, 12918.39
194.1780, 12782.77
195.4000, 13132.33
196.6220, 13967.06
197.8430, 15938.96
199.0640, 18133.03
200.2860, 21024.26
201.5070, 25202.11
202.7270, 30369.62
203.9480, 36757.80
205.1690, 43781.78
206.3890, 50542.50
207.6090, 56667.79
208.8290, 59833.11
210.0490, 59928.73
211.2690, 57586.66
212.4890, 52978.81
213.7080, 47644.42
214.9280, 41756.40
216.1470, 36975.96
217.3660, 33062.46
218.5850, 29753.96
219.8030, 27910.15
221.0220, 26280.93
222.2400, 25688.27
223.4590, 25687.14
224.6770, 25857.53
225.8950, 25937.41
227.1120, 25841.77
228.3300, 24915.59
229.5480, 23753.85
230.7650, 21693.54
231.9820, 19396.65
233.1990, 16714.15
234.4160, 14284.83
235.6330, 11862.03
236.8490, 10147.59
238.0660, 8157.761
239.2820, 6857.166
240.4980, 5744.596
241.7140, 4783.419
242.9300, 4029.338
244.1460, 3357.896
245.3610, 2742.837
246.5770, 2506.032
247.7920, 2087.726
249.0070, 1879.779
250.2220, 1742.330
251.4370, 1663.128
252.6510, 1633.192
253.8660, 1802.581
255.0800, 1823.784
256.2940, 1958.106
257.5080, 2328.197
258.7220, 2830.839
259.9360, 3107.225
261.1490, 3562.033
262.3630, 4210.024
263.5760, 5138.195
264.7890, 5391.540
266.0020, 5608.055
267.2150, 5537.735
268.4270, 5262.576
269.6400, 4717.576
270.8520, 4057.728
272.0640, 3571.031
273.2760, 3176.480
274.4880, 2825.073
275.7000, 2575.811
276.9120, 2497.691
278.1230, 2486.827
279.3340, 2569.886
280.5450, 2844.199
281.7560, 3214.655
282.9670, 3680.252
284.1780, 4285.988
285.3880, 5131.862
286.5980, 6137.876
287.8090, 7287.022
289.0190, 8742.304
290.2290, 10640.72
291.4380, 12809.26
292.6480, 15030.93
293.8570, 17032.72
295.0670, 18769.61
296.2760, 19784.61
297.4850, 20374.70
298.6930, 19619.89
299.9020, 18109.15
301.1110, 16328.50
302.3190, 14338.93
303.5270, 12180.44
304.7350, 10555.02
305.9430, 9176.685
307.1510, 7955.423
308.3580, 6938.232
309.5660, 6006.118
310.7730, 5375.079
311.9800, 4993.111
313.1870, 4496.215
314.3940, 4213.392
315.6010, 4117.641
316.8070, 3906.960
318.0130, 3919.348
319.2200, 4043.806
320.4260, 4015.332
321.6310, 4208.927
322.8370, 4362.590
324.0430, 4752.322
325.2480, 5032.118
326.4540, 5487.979
327.6590, 6129.906
328.8640, 6461.898
330.0680, 7196.952
331.2730, 7911.067
332.4780, 8425.246
333.6820, 9231.488
334.8860, 9620.784
336.0900, 9743.145
337.2940, 9571.561
338.4980, 9428.032
339.7010, 8818.564
340.9050, 7785.150
342.1080, 6801.791
343.3110, 5847.486
344.5140, 4833.234
345.7170, 3952.034
346.9200, 3262.969
348.1220, 2485.039
349.3240, 1926.246
350.5270, 1430.591
351.7290, 1028.075
352.9310, 723.6982
354.1320, 474.4634
355.3340, 243.3662
356.5350, 167.4116
357.7370, 59.40234
358.9380, 0.8901370
360.1390, 66.70215
361.3400, 132.2183
362.5400, 13.68994
363.7410, 94.92285
364.9410, 311.6372
366.1410, 567.4512
367.3410, 810.3618
368.5410, 982.3662
369.7410, 1328.461
370.9400, 1562.646
372.1400, 1536.917
373.3390, 1411.272
374.5380, 1182.711
375.7370, 781.2280
376.9360, 432.8237
378.1350, 2.504395
379.3330, 275.7900
380.5310, 489.1567
381.7300, 591.7100
382.9280, 807.5029
384.1260, 883.6455
385.3230, 915.1777
386.5210, 942.1201
387.7180, 927.4873
388.9160, 891.8350
390.1130, 888.4717
391.3100, 736.0742
392.5060, 684.0127
393.7030, 532.2637
394.9000, 427.7549
396.0960, 377.4375
397.2920, 355.2876
398.4880, 239.2979
399.6840, 107.4136
400.8800, 79.57617
402.0750, 32.22559
403.2710, 70.03955
404.4660, 131.8804
405.6610, 225.8955
406.8560, 178.6963
408.0510, 424.6729
409.2450, 399.6934
410.4400, 549.7578
411.6340, 612.8652
412.8280, 774.0151
414.0220, 976.2070
415.2160, 1304.439
416.4100, 1568.712
417.6030, 2186.025
418.7970, 2710.377
419.9900, 3525.768
421.1830, 4826.197
422.3760, 6283.663
423.5690, 8461.164
424.7610, 11510.71
425.9540, 15700.28
427.1460, 21249.89
428.3380, 27700.54
429.5300, 33727.21
430.7220, 37627.92
431.9140, 37423.68
433.1050, 34036.46
434.2970, 28571.29
435.4880, 22629.18
436.6790, 17740.12
437.8700, 13417.13
439.0610, 10149.20
440.2510, 7663.328
441.4420, 5962.520
442.6320, 4632.785
443.8220, 3575.136
445.0120, 2949.537
446.2020, 2261.012
447.3910, 1953.573
448.5810, 1706.199
449.7700, 1503.899
450.9600, 1327.691
452.1490, 1258.581
453.3370, 1326.581
454.5260, 1478.680
455.7150, 1576.868
456.9030, 1881.155
458.0910, 2153.563
459.2800, 2379.088
460.4670, 2499.710
461.6550, 2721.455
462.8430, 2757.304
464.0300, 2648.249
465.2180, 2202.292
466.4050, 1986.442
467.5920, 1659.677
468.7790, 1426.980
469.9650, 1126.363
471.1520, 796.7852
472.3380, 741.2563
473.5250, 563.7559
474.7110, 519.2754
475.8970, 429.8154
477.0820, 656.3745
478.2680, 788.9512
479.4540, 1120.546
480.6390, 1359.158
481.8240, 1728.788
483.0090, 1997.433
484.1940, 2077.096
485.3780, 2125.774
486.5630, 1883.469
487.7470, 1532.179
488.9320, 1278.904
490.1160, 992.6436
491.3000, 703.3970
492.4830, 594.1636
493.6670, 454.9419
494.8500, 335.7324
496.0340, 342.5327
497.2170, 329.3442
498.4000, 332.1641
499.5820, 301.9927
500.7650, 331.1499
501.9480, 398.1226
503.1300, 395.3818
504.3120, 478.6851
505.4940, 540.6362
506.6760, 608.5059
507.8580, 683.3813
509.0390, 800.2617
510.2210, 874.1465
511.4020, 854.0356
512.5830, 922.9287
513.7640, 1045.825
514.9450, 1084.723
516.1250, 1181.289
517.3060, 1300.964
518.4860, 1341.429
519.6660, 1542.333
520.8460, 1630.440
522.0260, 1721.410
523.2060, 1992.383
524.3850, 2047.088
525.5650, 2264.902
526.7440, 2418.022
527.9230, 2742.075
529.1020, 3110.349
530.2810, 3324.292
531.4590, 3682.155
532.6380, 4076.063
533.8160, 4320.761
534.9940, 4526.387
536.1720, 4627.791
537.3500, 4778.218
538.5270, 4930.503
539.7050, 4900.003
540.8820, 4653.798
542.0590, 4645.719
543.2360, 4436.109
544.4130, 4418.183
545.5900, 4237.740
546.7660, 4258.096
547.9430, 4105.485
549.1190, 4043.909
550.2950, 4117.364
551.4710, 3986.854
552.6470, 4136.375
553.8220, 4262.929
554.9980, 4292.514
556.1730, 4585.130
557.3480, 4629.778
558.5230, 4982.457
559.6980, 5239.167
560.8730, 5644.906
562.0470, 6010.676
563.2220, 6469.476
564.3960, 7194.305
565.5700, 7599.163
566.7440, 8469.049
567.9170, 9220.965
569.0910, 10244.91
570.2640, 11262.88
571.4380, 12655.88
572.6110, 14144.92
573.7840, 15666.27
574.9570, 17891.63
576.1290, 19552.56
577.3020, 21645.55
578.4740, 23872.99
579.6460, 25872.67
580.8180, 27517.18
581.9900, 28830.31
583.1620, 29209.66
584.3330, 29233.04
585.5040, 28207.21
586.6760, 26983.62
587.8470, 24961.75
589.0180, 22715.07
590.1880, 20653.57
591.3590, 18348.62
592.5290, 16450.10
593.7000, 14406.63
594.8700, 12787.59
596.0400, 11379.03
597.2090, 10333.36
598.3790, 9297.911
599.5490, 8409.221
600.7180, 7627.221
601.8870, 6979.713
603.0560, 6529.093
604.2250, 6161.257
605.3940, 5663.908
606.5620, 5427.555
607.7300, 5119.114
608.8990, 4910.096
610.0670, 4717.279
611.2350, 4671.372
612.4020, 4606.798
613.5700, 4500.904
614.7370, 4581.409
615.9050, 4611.146
617.0720, 4507.565
618.2390, 4443.977
619.4060, 4671.380
620.5720, 4791.776
621.7390, 4937.163
622.9050, 5102.543
624.0710, 5140.914
625.2370, 5246.273
626.4030, 5288.627
627.5690, 5386.971
628.7340, 5302.305
629.9000, 5402.629
631.0650, 5418.944
632.2300, 5675.250
633.3950, 5820.543
634.5600, 5814.829
635.7240, 6138.103
636.8890, 6344.365
638.0530, 6482.619
639.2170, 7014.861
640.3810, 7276.091
641.5450, 7513.327
642.7080, 8024.561
643.8720, 8542.803
645.0350, 9074.072
646.1980, 9745.340
647.3610, 10338.60
648.5240, 11168.84
649.6870, 11954.08
650.8490, 12820.31
652.0120, 13698.52
653.1740, 14693.74
654.3360, 15583.93
655.4980, 16726.12
656.6600, 17649.29
657.8210, 18618.46
658.9830, 19483.61
660.1440, 20065.75
661.3050, 20213.89
662.4660, 20512.10
663.6270, 20387.42
664.7870, 19884.88
665.9480, 19159.53
667.1080, 18202.41
668.2680, 17304.50
669.4280, 15803.82
670.5880, 14608.37
671.7480, 13308.14
672.9070, 12147.12
674.0670, 11052.29
675.2260, 9792.628
676.3850, 8825.098
677.5440, 7755.670
678.7030, 7118.340
679.8610, 6235.099
681.0200, 5571.921
682.1780, 5162.773
683.3360, 4530.649
684.4940, 4209.528
685.6520, 3653.397
686.8090, 3292.250
687.9670, 2910.085
689.1240, 2603.901
690.2810, 2356.697
691.4380, 2143.475
692.5950, 1897.232
693.7520, 1650.971
694.9080, 1550.688
696.0650, 1280.385
697.2210, 1095.062
698.3770, 1031.717
699.5330, 848.3506
700.6880, 771.9629
701.8440, 669.5527
702.9990, 527.1211
704.1550, 432.6670
705.3100, 318.1899
706.4650, 330.6899
707.6190, 296.1665
708.7740, 218.6201
709.9290, 201.0493
711.0830, 70.45410
712.2370, 53.82422
713.3910, 58.15527
714.5450, 23.55176
715.6980, 22.33447
716.8520, 75.19287
718.0050, 13.15625
719.1580, 56.19287
720.3110, 48.32617
721.4640, 81.55371
722.6170, 143.8936
723.7700, 4.620605
724.9220, 92.93359
726.0740, 134.6089
727.2260, 56.42822
728.3780, 89.35107
729.5300, 160.3955
730.6810, 181.6001
731.8330, 228.9756
732.9840, 186.5493
734.1350, 145.2988
735.2860, 190.2021
736.4370, 272.2842
737.5880, 251.5894
738.7380, 182.1055
739.8880, 284.7974
741.0390, 202.7192
742.1890, 182.8276
743.3380, 190.1128
744.4880, 221.5781
745.6380, 140.2412
746.7870, 83.05811
747.9360, 117.9995
749.0850, 28.91650
750.2340, 10.23291
751.3830, 92.53223
752.5310, 257.2529
753.6800, 201.9458
754.8280, 467.6089
755.9760, 612.2456
757.1240, 784.8564
758.2720, 995.4409
759.4190, 1162.000
760.5670, 1374.532
761.7140, 1666.039
762.8610, 1931.521
764.0080, 2100.976
765.1550, 2170.406
766.3020, 2273.811
767.4480, 2085.190
768.5950, 1973.543
769.7410, 1914.872
770.8870, 1713.176
772.0330, 1479.454
773.1780, 1297.708
774.3240, 1225.937
775.4690, 1149.141
776.6140, 1209.321
777.7590, 1111.476
778.9040, 1239.607
780.0490, 1264.064
781.1940, 1421.438
782.3380, 1579.560
783.4820, 1884.594
784.6260, 2263.854
785.7700, 2708.852
786.9140, 3162.842
788.0580, 3688.780
789.2010, 3946.052
790.3450, 4305.097
791.4880, 4255.964
792.6310, 3943.822
793.7730, 3648.216
794.9160, 3030.614
796.0590, 2633.387
797.2010, 2241.293
798.3430, 1852.862
799.4850, 1534.633
800.6270, 1302.314
801.7690, 1114.970
802.9100, 1034.603
804.0520, 845.2100
805.1930, 861.7915
806.3340, 758.3462
807.4750, 713.8735
808.6160, 716.3718
809.7560, 670.8406
810.8970, 658.2791
812.0370, 732.6865
813.1770, 659.0625
814.3170, 677.4053
815.4570, 757.7158
816.5960, 806.9932
817.7360, 767.2371
818.8750, 813.4470
820.0140, 911.6235
821.1530, 935.7656
822.2920, 1002.875
823.4310, 1106.949
824.5690, 1127.991
825.7070, 1185.998
826.8460, 1304.973
827.9840, 1452.914
829.1220, 1399.822
830.2590, 1520.697
831.3970, 1557.540
832.5340, 1666.351
833.6710, 1678.128
834.8080, 1734.874
835.9450, 1737.588
837.0820, 1753.270
838.2190, 1804.920
839.3550, 1815.673
840.4910, 1759.126
841.6270, 1869.682
842.7630, 1918.208
843.8990, 1943.703
845.0350, 1883.167
846.1700, 1931.602
847.3060, 1857.005
848.4410, 1851.373
849.5760, 1864.022
850.7100, 1823.455
851.8450, 1859.914
852.9800, 1829.313
854.1140, 1780.259
855.2480, 1703.966
856.3820, 1763.841
857.5160, 1736.082
858.6500, 1563.113
859.7830, 1548.109
860.9170, 1424.309
862.0500, 1316.270
863.1830, 1260.504
864.3160, 1153.536
865.4480, 1048.397
866.5810, 960.6992
867.7130, 957.5732
868.8460, 794.3828
869.9780, 765.7710
871.1100, 631.6680
872.2410, 695.6748
873.3730, 593.4741
874.5050, 579.5332
875.6360, 511.9243
876.7670, 482.8472
877.8980, 323.9058
879.0290, 385.1934
880.1590, 280.0127
881.2900, 292.8403
882.4200, 162.7783
883.5500, 257.3120
884.6800, 220.6592
885.8100, 142.1216
886.9400, 236.2749
888.0690, 74.77734
889.1990, 97.90430
890.3280, 135.8350
891.4570, 190.1079
892.5860, 121.3843
893.7140, 181.6646
894.8430, 180.9487
895.9710, 212.2373
897.1000, 217.4175
898.2280, 166.8281
899.3560, 194.1304
900.4830, 225.4375
901.6110, 177.7500
902.7380, 138.0679
903.8660, 207.3911
904.9930, 113.7217
906.1200, 183.0698
907.2460, 127.4360
908.3730, 96.80908
909.5000, 55.20801
910.6260, 80.61816
911.7520, 47.04199
912.8780, 56.48340
914.0040, 16.93701
915.1290, 25.60156
916.2550, 22.13477
917.3800, 60.65918
918.5050, 17.81494
919.6300, 19.68994
920.7550, 5.012207
921.8800, 59.64600
923.0040, 14.88086
924.1290, 26.57861
925.2530, 65.02148
926.3770, 34.55127
927.5010, 4.136230
928.6250, 39.25684
929.7480, 40.63867
930.8720, 9.985352
931.9950, 9.628418
933.1180, 109.2832
934.2410, 4.047363
935.3640, 107.6353
936.4860, 119.3315
937.6090, 203.0454
938.7310, 177.7720
939.8530, 293.5132
940.9750, 355.2666
942.0970, 449.0327
943.2180, 441.8130
944.3400, 439.6060
945.4610, 543.4160
946.5820, 676.2383
947.7030, 743.0728
948.8240, 838.9189
949.9450, 915.7783
951.0650, 995.0342
952.1860, 1032.536
953.3060, 1090.631
954.4260, 1105.348
955.5460, 1153.273
956.6650, 1183.214
957.7850, 1173.168
958.9040, 1146.137
960.0230, 1258.119
961.1420, 1213.115
962.2610, 1299.126
963.3800, 1386.154
964.4990, 1376.195
965.6170, 1538.251
966.7350, 1738.322
967.8530, 1970.407
968.9710, 2173.507
970.0890, 2399.623
971.2070, 2705.753
972.3240, 2832.898
973.4410, 2755.060
974.5580, 2712.236
975.6750, 2562.428
976.7920, 2331.637
977.9090, 2184.861
979.0250, 2013.101
980.1410, 1734.357
981.2580, 1720.630
982.3740, 1594.920
983.4890, 1729.233
984.6050, 1587.569
985.7200, 1558.929
986.8360, 1607.332
987.9510, 1622.777
989.0660, 1753.280
990.1810, 1643.823
991.2950, 1770.419
992.4100, 1760.067
993.5240, 1794.776
994.6390, 1815.563
995.7530, 1918.388
996.8660, 2068.279
997.9800, 2260.246
999.0940, 2505.269
1000.207, 2934.357
1001.320, 3117.530
1002.433, 3435.793
1003.546, 3694.160
1004.659, 3895.627
1005.772, 4046.532
1006.884, 4049.038
1007.996, 3930.936
1009.108, 3822.615
1010.220, 3473.823
1011.332, 3014.089
1012.444, 2664.073
1013.555, 2594.844
1014.666, 2172.271
1015.777, 2144.260
1016.888, 2045.903
1017.999, 1962.433
1019.110, 1973.316
1020.220, 1939.748
1021.331, 1978.689
1022.441, 2004.175
1023.551, 2010.775
1024.661, 2001.099
1025.770, 2093.906
1026.880, 2131.725
1027.989, 2275.556
1029.098, 2319.399
1030.207, 2559.254
1031.316, 2791.120
1032.425, 2938.999
1033.533, 3132.890
1034.642, 3506.792
1035.750, 3713.705
1036.858, 4086.631
1037.966, 4369.945
1039.073, 4884.289
1040.181, 5254.877
1041.288, 5895.104
1042.396, 6346.254
1043.503, 7333.301
1044.610, 8320.720
1045.716, 9414.930
1046.823, 10761.02
1047.929, 12361.18
1049.036, 14580.40
1050.142, 17268.26
1051.248, 20578.60
1052.353, 24672.48
1053.459, 29788.19
1054.564, 35330.83
1055.670, 41896.29
1056.775, 48319.56
1057.880, 53679.09
1058.985, 56626.05
1060.089, 56598.94
1061.194, 53446.02
1062.298, 48167.34
1063.402, 41871.55
1064.506, 35437.90
1065.610, 29504.56
1066.713, 24159.74
1067.817, 19988.84
1068.920, 16461.74
1070.023, 13644.49
1071.126, 11378.29
1072.229, 9398.299
1073.332, 8055.935
1074.435, 6797.405
1075.537, 5890.400
1076.639, 4943.984
1077.741, 4351.427
1078.843, 3903.805
1079.945, 3423.241
1081.046, 3048.494
1082.148, 2794.975
1083.249, 2540.256
1084.350, 2489.816
1085.451, 2290.318
1086.551, 2135.675
1087.652, 2096.132
1088.752, 1997.655
1089.853, 2629.136
1090.953, 1651.413
1092.053, 1488.762
1093.152, 2150.224
1094.252, 1181.932
1095.351, 1005.374
1096.451, 938.6348
1097.550, 896.0764
1098.649, 850.3423
1099.748, 824.5645
1100.846, 794.8713
1101.945, 795.1372
1103.043, 829.4036
1104.141, 827.6687
1105.239, 931.9331
1106.337, 1046.197
1107.434, 1213.462
1108.532, 1382.727
1109.629, 1549.991
1110.726, 1733.252
1111.823, 1937.513
1112.920, 2182.771
1114.017, 2194.028
1115.113, 2214.282
1116.210, 1991.661
1117.306, 1687.913
1118.402, 1521.160
1119.498, 1170.405
1120.593, 1048.646
1121.689, 706.8813
1122.784, 630.1135
1123.879, 507.3403
1124.974, 443.5637
1126.069, 382.7825
1127.164, 262.9946
1128.259, 222.1997
1129.353, 140.3977
1130.447, 161.5894
1131.541, 188.7737
1132.635, 142.9507
1133.729, 135.6396
1134.822, 146.2783
1135.916, 60.42700
1137.009, 7.566650
1138.102, 35.30981
1139.195, 70.54126
1140.288, 80.24683
1141.380, 86.23096
1142.473, 84.31738
1143.565, 45.47119
1144.657, 55.66406
1145.749, 15.91113
1146.841, 70.19409
1147.932, 62.54028
1149.024, 42.94678
1150.115, 94.39624
1151.206, 69.90991
1152.297, 92.47974
1153.388, 84.12744
1154.479, 116.8523
1155.569, 79.66528
1156.659, 177.4460
1157.750, 562.5400
1158.839, 819.6304
1159.929, 722.7021
1161.019, 541.7563
1162.108, 752.7969
1163.198, 644.9153
1164.287, 635.8306
1165.376, 518.8286
1166.465, 559.8181
1167.553, 149.7935
1168.642, 49.75024
1169.730, 5.316895
1170.818, 8.417480
1171.906, 76.43604
1172.994, 31.73315
1174.082, 22.03882
1175.170, 14.77783
1176.257, 1.480957
1177.344, 24.14038
1178.431, 118.7671
1179.518, 47.37012
1180.605, 25.94727
1181.691, 73.49219
1182.778, 4.983887
1183.864, 21.50952
1184.950, 50.90820
1186.036, 72.29712
1187.122, 29.66357
1188.207, 2.004883
1189.292, 20.72144
1190.378, 44.50806
1191.463, 3.294678
1192.548, 18.85107
1193.632, 51.95898
1194.717, 11.03906
1195.801, 71.07349
1196.886, 41.07861
1197.970, 42.53955
1199.054, 53.64038
1200.137, 27.88770
1201.221, 63.76074
1202.305, 52.66504
1203.388, 87.46362
1204.471, 120.3489
1205.554, 56.29272
1206.637, 98.99927
1207.719, 41.98340
1208.802, 151.8508
1209.884, 140.7056
1210.966, 186.8357
1212.048, 134.4097
1213.130, 184.2214
1214.212, 119.7200
1215.293, 135.3594
1216.374, 172.0017
1217.456, 149.7651
1218.536, 136.5330
1219.617, 148.2830
1220.698, 198.9768
1221.778, 183.6367
1222.859, 158.2212
1223.939, 107.7292
1225.019, 166.1848
1226.099, 254.3584
1227.178, 168.7209
1228.258, 211.9404
1229.337, 226.3645
1230.417, 236.6838
1231.496, 238.0574
1232.574, 243.2966
1233.653, 235.2690
1234.732, 283.2441
1235.810, 254.3567
1236.888, 295.8586
1237.966, 276.9241
1239.044, 251.0681
1240.122, 347.8643
1241.199, 249.7097
1242.277, 253.6877
1243.354, 246.4810
1244.431, 313.4194
1245.508, 197.5408
1246.585, 268.4639
1247.661, 257.0718
1248.738, 311.8037
1249.814, 278.4424
1250.890, 349.9319
1251.966, 327.6514
1253.042, 348.1560
1254.117, 316.0667
1255.193, 325.8477
1256.268, 302.1807
1257.343, 289.4832
1258.418, 317.9268
1259.493, 376.4106
1260.567, 295.9854
1261.642, 329.4497
1262.716, 300.7246
1263.790, 356.1069
1264.864, 364.1865
1265.938, 380.6890
1267.011, 371.5649
1268.085, 411.9316
1269.158, 400.2427
1270.231, 370.6433
1271.304, 420.5830
1272.377, 381.6377
1273.450, 399.1743
1274.522, 417.9678
1275.594, 412.9243
1276.666, 400.4785
1277.738, 342.0215
1278.810, 343.1177
1279.882, 333.5278
1280.953, 280.4473
1282.025, 330.6938
1283.096, 248.7441
1284.167, 295.2175
1285.238, 338.4497
1286.308, 273.5044
1287.379, 251.6460
1288.449, 267.4319
1289.519, 265.3889
1290.589, 331.1824
1291.659, 394.9133
1292.729, 304.9084
1293.798, 332.5608
1294.868, 294.6326
1295.937, 343.4897
1297.006, 335.2939
1298.075, 387.3618
1299.143, 378.3418
1300.212, 327.2888
1301.280, 368.3564
1302.348, 318.5132
1303.416, 316.5195
1304.484, 246.1736
1305.552, 295.9670
1306.620, 283.0779
1307.687, 326.9326
1308.754, 368.3127
1309.821, 332.1040
1310.888, 383.6338
1311.955, 347.6626
1313.021, 353.5952
1314.088, 398.8237
1315.154, 325.1948
1316.220, 353.7844
1317.286, 402.7117
1318.352, 370.4072
1319.417, 394.3198
1320.483, 365.0002
1321.548, 307.8657
1322.613, 307.7998
1323.678, 276.1426
1324.743, 205.2146
1325.807, 228.7361
1326.872, 223.2559
1327.936, 167.0225
1329.000, 159.9307
1330.064, 144.7620
1331.128, 180.3826
1332.191, 133.3496
1333.255, 112.4690
1334.318, 191.0469
1335.381, 87.01733
1336.444, 105.1116
1337.507, 101.2515
1338.569, 45.31738
1339.632, 154.5488
1340.694, 90.53540
1341.756, 179.7031
1342.818, 117.5764
1343.880, 109.4900
1344.941, 73.52930
1346.003, 65.26147
1347.064, 62.04517
1348.125, 68.14990
1349.186, 69.19556
1350.247, 80.15234
1351.308, 90.97852
1352.368, 95.54053
1353.428, 165.3472
1354.489, 103.3184
1355.549, 130.0894
1356.608, 74.01611
1357.668, 91.92529
1358.727, 71.81445
1359.787, 96.68262
1360.846, 172.5286
1361.905, 145.3293
1362.964, 105.0945
1364.022, 30.83643
1365.081, 101.5396
1366.139, 75.17944
1367.197, 162.7935
1368.255, 131.3767
1369.313, 91.91382
1370.371, 128.4265
1371.428, 85.90845
1372.486, 44.34253
1373.543, 73.59863
1374.600, 140.9556
1375.657, 103.2744
1376.713, 117.5708
1377.770, 180.8481
1378.826, 82.10547
1379.882, 125.3438
1380.938, 35.56348
1381.994, 46.76294
1383.050, 168.9426
1384.106, 141.1042
1385.161, 99.24780
1386.216, 81.37280
1387.271, 51.47900
1388.326, 69.56567
1389.381, 106.6331
1390.435, 72.68188
1391.490, 139.7114
1392.544, 35.72266
1393.598, 81.71411
1394.652, 73.68896
1395.705, 28.65796
1396.759, 61.62939
1397.812, 55.39307
1398.866, 40.57520
1399.919, 27.44971
1400.972, 25.51318
1402.024, 66.47534
1403.077, 13.42700
1404.129, 5.381836
1405.181, 25.66284
1406.233, 51.71973
1407.285, 36.78052
1408.337, 1.846924
1409.389, 76.09741
1410.440, 16.94580
1411.491, 64.02637
1412.542, 13.01196
1413.593, 48.01782
1414.644, 37.92310
1415.695, 13.85034
1416.745, 12.23755
1417.795, 33.65601
1418.845, 32.46436
1419.895, 11.60864
1420.945, 34.77075
1421.995, 15.95703
1423.044, 7.838867
1424.093, 55.62085
1425.142, 29.60620
1426.191, 66.15747
1427.240, 63.92383
1428.289, 55.68188
1429.337, 112.4504
1430.385, 103.2180
1431.433, 144.9868
1432.481, 62.76123
1433.529, 105.5359
1434.577, 133.3074
1435.624, 176.8076
1436.672, 285.5835
1437.719, 292.4700
1438.766, 362.2617
1439.812, 402.3984
1440.859, 410.2827
1441.905, 467.8901
1442.952, 436.5972
1443.998, 459.2935
1445.044, 487.4302
1446.090, 485.2610
1447.135, 481.8572
1448.181, 528.2698
1449.226, 526.3472
1450.271, 577.7500
1451.316, 599.5095
1452.361, 624.0803
1453.405, 589.5862
1454.450, 588.8232
1455.494, 562.0627
1456.538, 558.1201
1457.582, 563.0549
1458.626, 528.0664
1459.670, 551.3738
1460.713, 481.0569
1461.757, 464.6804
1462.800, 462.3718
1463.843, 411.2222
1464.886, 475.4043
1465.928, 366.3130
1466.971, 385.0093
1468.013, 351.1116
1469.055, 381.2075
1470.097, 346.5713
1471.139, 322.5237
1472.181, 284.4575
1473.222, 318.3418
1474.263, 359.6672
1475.305, 334.7034
1476.346, 296.8435
1477.386, 307.6936
1478.427, 353.7600
1479.468, 275.0281
1480.508, 386.7388
1481.548, 329.1169
1482.588, 260.8254
1483.628, 358.4417
1484.668, 295.0232
1485.707, 287.1306
1486.747, 199.6421
1487.786, 244.4041
1488.825, 290.2371
1489.864, 215.7959
1490.902, 182.2969
1491.941, 326.5850
1492.979, 170.3596
1494.017, 212.5337
1495.055, 202.8186
1496.093, 170.6287
1497.131, 218.7231
1498.168, 152.9851
1499.206, 163.9995
1500.243, 190.8879
1501.280, 226.4065
1502.317, 209.6006
1503.354, 183.5137
1504.390, 212.7217
1505.426, 192.9536
1506.463, 207.1631
1507.499, 276.3491
1508.535, 179.5093
1509.570, 287.6426
1510.606, 220.7490
1511.641, 238.8398
1512.676, 217.8877
1513.711, 319.8779
1514.746, 348.8174
1515.781, 249.7114
1516.816, 171.5552
1517.850, 160.3594
1518.884, 281.1240
1519.918, 203.8335
1520.952, 282.4927
1521.986, 225.0962
1523.019, 235.6450
1524.053, 305.1362
1525.086, 341.5625
1526.119, 253.9248
1527.152, 229.2153
1528.185, 191.4409
1529.217, 220.5942
1530.250, 184.7578
1531.282, 227.0293
1532.314, 229.4771
1533.346, 217.0713
1534.377, 229.5723
1535.409, 206.7476
1536.440, 232.9482
1537.472, 220.2993
1538.503, 249.6660
1539.534, 229.0386
1540.564, 286.4131
1541.595, 236.4092
1542.625, 147.1802
1543.656, 156.5835
1544.686, 180.0107
1545.716, 152.4717
1546.745, 153.9771
1547.775, 145.7222
1548.804, 155.1807
1549.834, 130.9165
1550.863, 172.7754
1551.892, 189.7861
1552.920, 110.9604
1553.949, 96.28760
1554.977, 53.75146
1556.006, 147.3291
1557.034, 54.03516
1558.062, 139.8921
1559.089, 21.07129
1560.117, 82.17578
1561.144, 35.66699
1562.172, 79.43408
1563.199, 95.50000
1564.226, 53.88672
1565.252, 49.63916
1566.279, 72.05762
1567.305, 123.6226
1568.332, 5.2733999E-02
1569.358, 33.35645
1570.384, 15.35840
1571.409, 45.97754
1572.435, 0.0000000E+00
##END=



