##NAMES=Fluorite
##RRUFFID=R040099
##IDEAL CHEMISTRY=CaF_2_
##LOCALITY=Rock Candy mine, Grand Forks, British Columbia, Canada
##OWNER=RRUFF
##SOURCE=Bob Downs
##DESCRIPTION=Pale purple fragment
##STATUS=The identification of this mineral has been confirmed by X-ray diffraction and chemical analysis
##URL=rruff.info/R040099
##MEASURED CHEMISTRY=Ca_0.99_F_2.00_
##PIN_ID=L01716
##ORIENTATION=Laser parallel to a* (1 0 0). Fiducial mark perpendicular to laser is parallel to -c [0 0 -1]
83.38800, 0.0000000E+00
84.62600, 36.59619
85.86300, 48.57593
87.10100, 1.900879
88.33800, 52.22803
89.57500, 98.31860
90.81200, 77.39990
92.04900, 139.3230
93.28600, 200.2017
94.52300, 247.3828
95.75900, 299.4954
96.99500, 295.5654
98.23100, 261.2065
99.46700, 329.0659
100.7030, 465.8872
101.9390, 400.4817
103.1740, 447.7058
104.4090, 448.4497
105.6440, 470.6284
106.8790, 482.3918
108.1140, 581.9370
109.3490, 559.2012
110.5830, 546.5244
111.8180, 597.8213
113.0520, 544.0923
114.2860, 597.3389
115.5200, 646.5618
116.7530, 692.7622
117.9870, 699.9419
119.2200, 610.1016
120.4530, 650.2446
121.6860, 550.3696
122.9190, 480.4783
124.1520, 452.5735
125.3850, 399.4060
126.6170, 356.7407
127.8490, 354.8203
129.0810, 288.9011
130.3130, 284.4451
131.5450, 319.4834
132.7770, 386.8909
134.0080, 327.1650
135.2390, 434.3347
136.4710, 457.6631
137.7020, 571.9619
138.9320, 730.2363
140.1630, 1026.490
141.3930, 1122.726
142.6240, 1339.949
143.8540, 1441.160
145.0840, 1509.359
146.3140, 1803.544
147.5440, 2208.716
148.7730, 2046.876
150.0020, 1782.028
151.2320, 1214.173
152.4610, 868.3135
153.6900, 621.4512
154.9180, 346.5879
156.1470, 272.7263
157.3750, 220.8557
158.6040, 255.9570
159.8320, 195.0518
161.0600, 144.1511
162.2870, 123.2632
163.5150, 143.3931
164.7420, 181.5442
165.9700, 199.7185
167.1970, 236.9180
168.4240, 161.1438
169.6510, 188.3965
170.8770, 144.6760
172.1040, 90.98145
173.3300, 76.31323
174.5560, 48.67041
175.7820, 18.94727
177.0080, 40.19263
178.2340, 30.83472
179.4590, 61.22729
180.6850, 80.75024
181.9100, 37.74341
183.1350, 93.16455
184.3600, 0.4035640
185.5850, 24.44482
186.8090, 9.244629
188.0340, 147.0764
189.2580, 223.9573
190.4820, 220.8650
191.7060, 294.7983
192.9300, 297.1768
194.1530, 340.7424
195.3770, 305.7524
196.6000, 268.7871
197.8230, 266.8467
199.0460, 227.9302
200.2690, 235.0376
201.4910, 243.1689
202.7140, 270.3240
203.9360, 246.9185
205.1580, 244.6267
206.3800, 205.7119
207.6020, 125.7400
208.8240, 97.77490
210.0450, 103.8264
211.2670, 107.8989
212.4880, 140.9924
213.7090, 96.10669
214.9300, 131.2422
216.1510, 91.39868
217.3710, 177.5767
218.5920, 179.7756
219.8120, 244.9968
221.0320, 247.2415
222.2520, 418.5115
223.4720, 525.8081
224.6910, 685.1318
225.9110, 659.4834
227.1300, 734.8635
228.3490, 711.2732
229.5680, 664.7114
230.7870, 476.9165
232.0050, 379.5781
233.2240, 383.5396
234.4420, 507.7234
235.6600, 462.0823
236.8780, 447.5842
238.0960, 436.2058
239.3140, 484.9290
240.5310, 582.7395
241.7490, 727.6267
242.9660, 819.5815
244.1830, 818.5945
245.4000, 832.6589
246.6160, 653.7686
247.8330, 472.9187
249.0490, 312.1094
250.2660, 299.3340
251.4820, 311.5906
252.6980, 265.8796
253.9130, 263.1956
255.1290, 291.5305
256.3440, 125.8765
257.5600, 112.2332
258.7750, 143.6008
259.9900, 281.9790
261.2040, 582.3689
262.4190, 791.7693
263.6330, 918.1812
264.8480, 783.6042
266.0620, 532.0386
267.2760, 335.4846
268.4900, 184.9424
269.7030, 13.58862
270.9170, 17.88525
272.1300, 56.63062
273.3430, 53.15112
274.5560, 158.6753
275.7690, 63.22729
276.9820, 80.82007
278.1940, 22.51416
279.4070, 137.2349
280.6190, 46.01636
281.8310, 37.89526
283.0430, 59.77612
284.2550, 56.01074
285.4660, 9.233154
286.6770, 2.572754
287.8890, 33.04736
289.1000, 34.93140
290.3110, 55.00171
291.5210, 101.1570
292.7320, 203.0073
293.9420, 274.1851
295.1530, 339.7051
296.3630, 490.5742
297.5730, 478.7864
298.7830, 593.0098
299.9920, 671.2446
301.2020, 833.4915
302.4110, 894.7500
303.6200, 1176.020
304.8290, 1307.302
306.0380, 1541.596
307.2470, 1939.902
308.4550, 2162.219
309.6630, 2793.549
310.8720, 3528.891
312.0800, 4255.245
313.2880, 5419.609
314.4950, 6855.987
315.7030, 8964.376
316.9100, 12126.77
318.1170, 16477.19
319.3240, 21453.62
320.5310, 27476.06
321.7380, 33273.77
322.9450, 36562.56
324.1510, 35971.66
325.3570, 31902.87
326.5630, 26276.75
327.7690, 20762.49
328.9750, 16106.10
330.1810, 12479.21
331.3860, 9755.203
332.5910, 8011.730
333.7960, 6495.003
335.0010, 5552.294
336.2060, 4832.601
337.4110, 4276.922
338.6150, 3770.258
339.8200, 3385.610
341.0240, 3137.978
342.2280, 2861.361
343.4320, 2705.761
344.6350, 2573.176
345.8390, 2317.611
347.0420, 2310.064
348.2450, 2106.537
349.4480, 2123.032
350.6510, 2136.548
351.8540, 2166.094
353.0560, 2032.677
354.2590, 2185.316
355.4610, 2028.003
356.6630, 2182.745
357.8650, 2077.547
359.0670, 2147.406
360.2680, 2142.320
361.4700, 2030.288
362.6710, 1997.294
363.8720, 2002.324
365.0730, 2017.397
366.2740, 1946.503
367.4740, 1926.612
368.6750, 1867.852
369.8750, 1791.066
371.0750, 1705.326
372.2750, 1651.027
373.4750, 1570.573
374.6740, 1522.225
375.8740, 1440.567
377.0730, 1358.929
378.2720, 1319.307
379.4710, 1312.699
380.6700, 1177.106
381.8690, 1202.525
383.0670, 1177.958
384.2660, 1059.401
385.4640, 988.8577
386.6620, 959.3247
387.8600, 851.8027
389.0570, 908.2915
390.2550, 774.7910
391.4520, 715.3005
392.6490, 740.3716
393.8460, 684.9006
395.0430, 558.4399
396.2400, 602.4739
397.4370, 487.0315
398.6330, 420.5981
399.8290, 406.1736
401.0250, 409.7583
402.2210, 419.3516
403.4170, 420.9539
404.6130, 387.6877
405.8080, 304.1846
407.0030, 312.8125
408.1980, 221.4492
409.3930, 189.0942
410.5880, 193.7476
411.7830, 136.4092
412.9770, 125.0786
414.1720, 118.2537
415.3660, 67.70850
416.5600, 53.77051
417.7530, 6.010742
418.9470, 12.53174
420.1410, 46.27588
421.3340, 21.09863
422.5270, 10.70850
423.7200, 72.51416
424.9130, 28.05420
426.1060, 16.04736
427.2980, 65.04053
428.4900, 8.993164
429.6830, 53.81641
430.8750, 20.94482
432.0670, 70.19141
433.2580, 44.44043
434.4500, 8.316895
435.6410, 68.91699
436.8320, 85.84375
438.0240, 12.61377
439.2140, 58.39355
440.4050, 56.18213
441.5960, 106.9805
442.7860, 46.78760
443.9760, 32.60400
445.1670, 105.4292
446.3560, 78.26367
447.5460, 192.1064
448.7360, 139.9580
449.9250, 153.8179
451.1150, 115.6860
452.3040, 131.5635
453.4930, 183.4487
454.6810, 151.6670
455.8700, 157.2456
457.0590, 160.3711
458.2470, 186.2930
459.4350, 239.4736
460.6230, 204.6489
461.8110, 170.6006
462.9980, 319.2041
464.1860, 278.5073
465.3730, 387.8398
466.5600, 346.1792
467.7470, 377.6875
468.9340, 343.9609
470.1210, 366.8945
471.3080, 361.6880
472.4940, 409.6030
473.6800, 435.0098
474.8660, 451.7856
476.0520, 472.2461
477.2380, 472.2324
478.4230, 480.8057
479.6090, 537.1455
480.7940, 469.6240
481.9790, 470.2368
483.1640, 437.8291
484.3490, 371.4048
485.5330, 468.4722
486.7180, 467.0645
487.9020, 570.5142
489.0860, 630.0913
490.2700, 624.5449
491.4540, 738.0552
492.6370, 704.9106
493.8210, 625.5859
495.0040, 636.9141
496.1870, 638.6514
497.3700, 669.6470
498.5530, 642.2319
499.7360, 609.7935
500.9180, 573.0459
502.1000, 569.0322
503.2830, 477.2422
504.4650, 389.6665
505.6460, 331.5454
506.8280, 300.5732
508.0100, 264.1465
509.1910, 237.6216
510.3720, 250.5884
511.5530, 228.5278
512.7340, 245.4307
513.9150, 236.3911
515.0950, 271.0015
516.2760, 216.4194
517.4560, 265.6689
518.6360, 168.6826
519.8160, 93.36816
520.9950, 146.9326
522.1750, 168.4980
523.3540, 163.0645
524.5340, 144.6313
525.7130, 41.19873
526.8920, 72.76611
528.0700, 55.33350
529.2490, 34.89990
530.4270, 70.46582
531.6060, 34.03076
532.7840, 83.59473
533.9620, 23.84277
535.1390, 48.71191
536.3170, 80.26514
537.4940, 20.18408
538.6720, 38.35938
539.8490, 69.89941
541.0260, 74.43750
542.2030, 134.9722
543.3790, 167.5034
544.5560, 173.0312
545.7320, 182.5547
546.9080, 250.0747
548.0840, 219.5903
549.2600, 318.1011
550.4360, 283.6064
551.6110, 216.1079
552.7860, 337.6035
553.9620, 212.0938
555.1370, 342.5776
556.3110, 326.0625
557.4860, 309.5425
558.6610, 392.0327
559.8350, 375.5308
561.0090, 362.0620
562.1830, 400.6025
563.3570, 458.1572
564.5310, 461.7051
565.7040, 457.1997
566.8780, 517.7793
568.0510, 520.3633
569.2240, 562.3027
570.3970, 583.7651
571.5700, 527.1333
572.7420, 518.3682
573.9150, 498.1948
575.0870, 467.8364
576.2590, 460.3940
577.4310, 426.5195
578.6030, 435.7935
579.7740, 383.8115
580.9460, 356.8330
582.1170, 364.3359
583.2880, 331.1475
584.4590, 417.3057
585.6300, 313.7725
586.8010, 291.2271
587.9710, 299.6680
589.1410, 194.0962
590.3110, 257.5161
591.4810, 183.9312
592.6510, 191.3594
593.8210, 198.8154
594.9900, 226.3047
596.1600, 170.8555
597.3290, 89.50098
598.4980, 145.2104
599.6670, 87.01074
600.8350, 93.89258
602.0040, 155.8750
603.1720, 31.93066
604.3400, 81.07715
605.5080, 81.27539
606.6760, 87.52295
607.8440, 63.81982
609.0120, 121.1626
610.1790, 59.57373
611.3460, 28.01709
612.5130, 46.51514
613.6800, 132.0991
614.8470, 71.79590
616.0130, 135.5825
617.1800, 60.43799
618.3460, 159.3979
619.5120, 153.4189
620.6780, 163.4663
621.8440, 139.5122
623.0090, 152.5322
624.1750, 164.5234
625.3400, 90.48633
626.5050, 176.4160
627.6700, 69.31592
628.8350, 64.19238
629.9990, 79.05176
631.1640, 18.90039
632.3280, 59.70264
633.4920, 13.53857
634.6560, 39.77979
635.8200, 108.2183
636.9840, 78.70947
638.1470, 102.2993
639.3100, 116.1768
640.4730, 109.6035
641.6360, 103.7686
642.7990, 89.82812
643.9620, 27.99951
645.1240, 45.74951
646.2870, 50.55762
647.4490, 3.958496
648.6110, 90.43066
649.7730, 10.98047
650.9340, 58.32373
652.0960, 57.39062
653.2570, 121.7915
654.4180, 152.9233
655.5790, 99.00732
656.7400, 196.0366
657.9010, 233.0200
659.0620, 314.9604
660.2220, 382.6899
661.3820, 380.7192
662.5420, 540.5391
663.7020, 574.3174
664.8620, 696.0542
666.0210, 957.7500
667.1810, 1050.403
668.3400, 1147.014
669.4990, 1367.582
670.6580, 1196.106
671.8170, 1261.588
672.9750, 1124.025
674.1340, 1201.866
675.2920, 1235.213
676.4500, 1183.516
677.6080, 1239.287
678.7660, 1339.499
679.9230, 1390.664
681.0810, 1438.782
682.2380, 1752.853
683.3950, 1791.876
684.5520, 1957.853
685.7090, 2197.779
686.8660, 2352.658
688.0220, 2433.488
689.1780, 2605.270
690.3340, 2926.000
691.4900, 2912.680
692.6460, 3071.311
693.8020, 3240.890
694.9570, 3263.418
696.1130, 3202.896
697.2680, 3338.321
698.4230, 3256.694
699.5780, 3295.017
700.7320, 3549.285
701.8870, 3661.500
703.0410, 3790.661
704.1950, 4130.771
705.3490, 4227.834
706.5030, 4278.845
707.6570, 4311.801
708.8110, 4359.709
709.9640, 4327.564
711.1170, 4272.369
712.2700, 4206.122
713.4230, 4028.824
714.5760, 3747.478
715.7280, 3513.075
716.8810, 3319.634
718.0330, 3051.137
719.1850, 2890.597
720.3370, 2669.998
721.4890, 2508.361
722.6400, 2280.668
723.7920, 2110.918
724.9430, 2001.108
726.0940, 1918.241
727.2450, 1773.312
728.3960, 1726.099
729.5460, 1557.669
730.6970, 1506.368
731.8470, 1509.289
732.9970, 1415.919
734.1470, 1455.630
735.2970, 1337.624
736.4460, 1316.507
737.5960, 1368.458
738.7450, 1272.491
739.8940, 1312.096
741.0430, 1246.827
742.1920, 1253.746
743.3410, 1321.562
744.4890, 1210.313
745.6370, 1122.719
746.7850, 1154.687
747.9330, 1220.783
749.0810, 1201.348
750.2290, 1279.294
751.3760, 1267.018
752.5240, 1306.797
753.6710, 1299.532
754.8180, 1362.727
755.9650, 1509.487
757.1110, 1396.691
758.2580, 1590.747
759.4040, 1614.806
760.5510, 1440.313
761.6970, 1596.760
762.8420, 1435.143
763.9880, 1450.952
765.1340, 1393.154
766.2790, 1352.707
767.4240, 1391.041
768.5690, 1420.664
769.7140, 1332.618
770.8590, 1433.143
772.0030, 1438.764
773.1480, 1573.646
774.2920, 1539.036
775.4360, 1516.082
776.5800, 1582.454
777.7240, 1577.762
778.8670, 1772.294
780.0110, 1779.005
781.1540, 1807.407
782.2970, 1758.507
783.4400, 1878.065
784.5830, 1920.387
785.7250, 1825.315
786.8680, 2013.776
788.0100, 2094.896
789.1520, 1926.955
790.2940, 2265.961
791.4360, 2157.821
792.5780, 2241.941
793.7190, 2321.166
794.8600, 2284.470
796.0010, 2444.918
797.1420, 2414.605
798.2830, 2481.324
799.4240, 2542.951
800.5640, 2557.487
801.7050, 2479.932
802.8450, 2611.284
803.9850, 2720.546
805.1250, 2618.716
806.2640, 2697.796
807.4040, 2745.785
808.5430, 2824.683
809.6820, 2709.489
810.8210, 2936.205
811.9600, 2864.833
813.0990, 2820.372
814.2370, 3072.820
815.3760, 3012.180
816.5140, 3160.450
817.6520, 3056.631
818.7900, 3308.721
819.9270, 3222.722
821.0650, 3283.634
822.2020, 3296.456
823.3390, 3394.188
824.4760, 3523.832
825.6130, 3474.388
826.7500, 3443.854
827.8870, 3464.233
829.0230, 3709.523
830.1590, 3857.747
831.2950, 3950.886
832.4310, 4632.954
833.5670, 5091.954
834.7030, 6155.877
835.8380, 6925.737
836.9730, 7339.541
838.1080, 7387.284
839.2430, 7111.956
840.3780, 7298.582
841.5130, 7667.157
842.6470, 7857.677
843.7810, 7775.164
844.9150, 7378.580
846.0490, 6389.920
847.1830, 6028.187
848.3170, 5384.382
849.4500, 5175.493
850.5830, 5360.521
851.7160, 5396.651
852.8490, 5169.580
853.9820, 4507.359
855.1150, 3671.859
856.2470, 3011.474
857.3800, 2279.920
858.5120, 1882.707
859.6440, 1390.146
860.7760, 1079.434
861.9070, 801.6416
863.0390, 645.7681
864.1700, 418.8149
865.3010, 370.7715
866.4320, 211.6309
867.5630, 118.3560
868.6940, 74.92090
869.8240, 35.69141
870.9540, 170.5317
872.0850, 63.67041
873.2150, 160.0483
874.3450, 136.7168
875.4740, 212.6597
876.6040, 102.9165
877.7330, 199.4268
878.8620, 37.23877
879.9910, 40.26562
881.1200, 38.50732
882.2490, 37.96094
883.3770, 119.6235
884.5060, 6.463867
885.6340, 105.6304
886.7620, 214.9609
887.8900, 307.5830
889.0180, 237.5454
890.1450, 148.8081
891.2730, 314.3228
892.4000, 126.1719
893.5270, 2.255859
894.6540, 110.4922
895.7810, 315.1255
896.9070, 315.6963
898.0340, 410.2065
899.1600, 435.6567
900.2860, 324.0513
901.4120, 153.3872
902.5380, 95.64307
903.6630, 61.80371
904.7890, 260.8564
905.9140, 392.8628
907.0390, 828.8213
908.1640, 1846.742
909.2890, 3654.633
910.4130, 5299.514
911.5380, 9322.378
912.6620, 12897.23
913.7860, 12625.08
914.9100, 9504.929
916.0340, 6820.769
917.1580, 5394.605
918.2810, 5432.417
919.4040, 5928.199
920.5280, 7181.965
921.6510, 9422.708
922.7730, 11266.45
923.8960, 10719.17
925.0180, 9358.862
926.1410, 9604.547
927.2630, 12226.20
928.3850, 15072.83
929.5070, 14843.43
930.6280, 11715.00
931.7500, 9266.539
932.8710, 7773.047
933.9920, 6852.525
935.1130, 6195.975
936.2340, 6366.396
937.3550, 8328.788
938.4760, 10144.15
939.5960, 9528.498
940.7160, 7065.818
941.8360, 5036.113
942.9560, 4086.388
944.0760, 4389.641
945.1950, 5889.875
946.3150, 9111.090
947.4340, 15383.29
948.5530, 22280.46
949.6720, 23904.63
950.7900, 18651.79
951.9090, 11636.93
953.0270, 6970.050
954.1460, 4418.166
955.2640, 3157.271
956.3820, 2282.368
957.4990, 2100.458
958.6170, 1815.542
959.7340, 1756.619
960.8520, 1987.692
961.9690, 2085.762
963.0860, 2194.831
964.2020, 2423.417
965.3190, 2503.032
966.4350, 2444.323
967.5520, 2427.332
968.6680, 2307.158
969.7840, 2142.266
970.8990, 1947.968
972.0150, 1591.022
973.1310, 1290.817
974.2460, 1100.315
975.3610, 796.5674
976.4760, 682.3682
977.5910, 673.4873
978.7050, 518.4668
979.8200, 472.0557
980.9340, 229.5166
982.0480, 180.9043
983.1620, 112.1572
984.2760, 147.3545
985.3900, 72.56836
986.5030, 2.793945
987.6160, 113.0156
988.7300, 19.74316
989.8430, 93.48926
990.9550, 52.25684
992.0680, 53.98047
993.1810, 70.23535
994.2930, 79.51367
995.4050, 133.8164
996.5170, 90.14648
997.6290, 303.5049
998.7410, 327.1191
999.8520, 340.9189
1000.964, 520.5625
1002.075, 663.9561
1003.186, 679.6133
1004.297, 659.1631
1005.407, 801.4062
1006.518, 771.5205
1007.628, 1086.758
1008.738, 1068.641
1009.848, 1353.946
1010.958, 1399.339
1012.068, 1458.881
1013.178, 1569.819
1014.287, 1708.791
1015.396, 1891.103
1016.505, 2020.685
1017.614, 2095.384
1018.723, 2390.248
1019.831, 2428.332
1020.940, 2647.819
1022.048, 2694.767
1023.156, 2887.397
1024.264, 2820.894
1025.372, 2991.308
1026.479, 3212.850
1027.587, 3408.495
1028.694, 3611.161
1029.801, 3829.264
1030.908, 4034.467
1032.015, 3934.771
1033.121, 3905.181
1034.228, 4050.699
1035.334, 3968.039
1036.440, 4082.500
1037.546, 3796.825
1038.652, 4059.799
1039.758, 3913.891
1040.863, 4005.102
1041.968, 4131.432
1043.074, 4160.886
1044.178, 4085.463
1045.283, 4287.162
1046.388, 4145.990
1047.492, 4241.941
1048.597, 4341.020
1049.701, 4559.225
1050.805, 4184.562
1051.909, 4188.029
1053.012, 4293.630
1054.116, 4131.363
1055.219, 4051.231
1056.322, 3751.235
1057.425, 3828.375
1058.528, 3859.653
1059.631, 3535.070
1060.733, 3488.626
1061.836, 3223.322
1062.938, 3255.158
1064.040, 3085.139
1065.142, 3023.260
1066.243, 2744.525
1067.345, 2550.937
1068.446, 2512.492
1069.547, 2256.193
1070.648, 2256.043
1071.749, 2053.041
1072.850, 2050.188
1073.951, 1966.482
1075.051, 1877.930
1076.151, 1809.018
1077.251, 1749.277
1078.351, 1614.181
1079.451, 1431.236
1080.550, 1319.449
1081.650, 1122.817
1082.749, 901.3398
1083.848, 835.0195
1084.947, 740.8574
1086.046, 709.8545
1087.144, 653.0098
1088.243, 495.3252
1089.341, 576.8018
1090.439, 302.4385
1091.537, 250.2383
1092.635, 157.2002
1093.732, 102.3262
1094.830, 86.61621
1095.927, 229.9297
1097.024, 42.35254
1098.121, 179.6172
1099.218, 208.7461
1100.314, 130.7461
1101.411, 239.5996
1102.507, 309.3301
1103.603, 287.9521
1104.699, 161.4609
1105.795, 372.8271
1106.890, 365.0996
1107.986, 316.2754
1109.081, 457.3428
1110.176, 171.3369
1111.271, 103.1885
1112.366, 146.8838
1113.461, 143.4297
1114.555, 4.174805
1115.649, 157.9502
1116.744, 192.8994
1117.838, 326.8379
1118.931, 245.0703
1120.025, 311.5420
1121.119, 648.3857
1122.212, 750.2090
1123.305, 1207.295
1124.398, 1151.134
1125.491, 1364.415
1126.584, 1503.943
1127.676, 1644.648
1128.768, 1729.531
1129.861, 1891.592
1130.953, 1960.834
1132.044, 2313.262
1133.136, 2577.896
1134.228, 2758.748
1135.319, 2942.828
1136.410, 3493.159
1137.501, 3624.781
1138.592, 4219.662
1139.683, 4580.827
1140.773, 4945.271
1141.864, 5291.012
1142.954, 5551.020
1144.044, 5954.320
1145.134, 6132.869
1146.224, 6446.668
1147.313, 6671.719
1148.402, 6548.033
1149.492, 6904.639
1150.581, 6871.527
1151.670, 7018.750
1152.758, 6977.398
1153.847, 6842.479
1154.935, 6550.033
1156.024, 6324.055
1157.112, 6249.604
1158.200, 6029.703
1159.287, 5925.270
1160.375, 5985.292
1161.462, 5774.785
1162.550, 5780.719
1163.637, 5675.133
1164.724, 5400.020
1165.810, 5490.381
1166.897, 5325.186
1167.983, 5225.417
1169.070, 5010.041
1170.156, 4868.955
1171.242, 4702.104
1172.327, 4598.461
1173.413, 4425.008
1174.499, 4028.752
1175.584, 3966.690
1176.669, 3565.841
1177.754, 3285.221
1178.839, 3089.848
1179.923, 2640.757
1181.008, 2439.947
1182.092, 2130.415
1183.176, 2101.160
1184.260, 1849.137
1185.344, 1338.346
1186.428, 1317.770
1187.511, 1039.386
1188.595, 1153.182
1189.678, 973.1484
1190.761, 855.2764
1191.843, 799.5635
1192.926, 772.0088
1194.009, 771.6133
1195.091, 677.3564
1196.173, 409.2979
1197.255, 530.3740
1198.337, 376.6084
1199.419, 338.9990
1200.500, 380.5459
1201.582, 372.2549
1202.663, 283.1250
1203.744, 198.1572
1204.825, 437.3506
1205.905, 405.7012
1206.986, 315.2061
1208.066, 230.8613
1209.146, 342.6650
1210.226, 483.6191
1211.306, 339.7217
1212.386, 478.9717
1213.466, 502.3701
1214.545, 498.9150
1215.624, 524.6055
1216.703, 608.2500
1217.782, 744.4199
1218.861, 792.5430
1219.939, 935.8096
1221.018, 1013.218
1222.096, 982.7686
1223.174, 1195.461
1224.252, 1079.290
1225.330, 1187.719
1226.407, 1168.842
1227.485, 1296.526
1228.562, 1282.660
1229.639, 1340.197
1230.716, 1525.686
1231.793, 1539.705
1232.869, 1603.888
1233.946, 1651.821
1235.022, 1544.120
1236.098, 1800.817
1237.174, 2009.863
1238.250, 1928.461
1239.325, 2140.839
1240.401, 2141.452
1241.476, 2441.549
1242.551, 2552.866
1243.626, 2819.348
1244.701, 2939.055
1245.776, 3054.906
1246.850, 3290.831
1247.924, 3564.830
1248.999, 3940.910
1250.073, 4152.055
1251.146, 4225.281
1252.220, 4310.568
1253.293, 4506.936
1254.367, 4831.363
1255.440, 4904.848
1256.513, 5171.386
1257.586, 5370.975
1258.658, 5286.609
1259.731, 5462.291
1260.803, 5407.012
1261.875, 5415.771
1262.947, 5410.568
1264.019, 5239.396
1265.091, 5341.256
1266.162, 5212.139
1267.234, 5356.049
1268.305, 5258.979
1269.376, 5322.930
1270.447, 5220.895
1271.517, 5234.872
1272.588, 5318.860
1273.658, 5267.855
1274.729, 5493.855
1275.799, 5507.172
1276.868, 5591.791
1277.938, 5781.339
1279.008, 5768.362
1280.077, 6052.939
1281.146, 5911.712
1282.215, 6115.320
1283.284, 6258.276
1284.353, 6403.164
1285.421, 6547.762
1286.490, 6701.830
1287.558, 6920.141
1288.626, 7154.482
1289.694, 7193.691
1290.762, 7567.174
1291.829, 7677.202
1292.897, 7751.760
1293.964, 7906.246
1295.031, 7871.273
1296.098, 7831.537
1297.165, 7758.662
1298.231, 7676.760
1299.298, 7599.848
1300.364, 7430.593
1301.430, 7291.236
1302.496, 7093.367
1303.562, 6928.420
1304.627, 6807.848
1305.693, 6483.019
1306.758, 6473.316
1307.823, 6228.304
1308.888, 6141.601
1309.953, 6146.539
1311.018, 6247.329
1312.082, 6372.820
1313.146, 6299.545
1314.210, 6314.684
1315.274, 6621.609
1316.338, 6470.165
1317.402, 6752.658
1318.465, 6651.667
1319.529, 6675.686
1320.592, 6464.710
1321.655, 6381.740
1322.718, 6255.994
1323.780, 6140.812
1324.843, 5932.846
1325.905, 5640.881
1326.967, 5399.913
1328.029, 5117.469
1329.091, 5012.291
1330.153, 4872.934
1331.214, 4622.144
1332.275, 4411.051
1333.337, 4162.212
1334.398, 4019.698
1335.458, 3855.518
1336.519, 3710.544
1337.580, 3606.568
1338.640, 3523.501
1339.700, 3409.422
1340.760, 3330.288
1341.820, 3236.222
1342.880, 3177.101
1343.939, 3098.967
1344.999, 3050.820
1346.058, 2972.661
1347.117, 2947.490
1348.176, 2778.308
1349.235, 2767.115
1350.293, 2883.875
1351.351, 3044.488
1352.410, 3333.718
1353.468, 3578.385
1354.526, 3859.277
1355.583, 4350.145
1356.641, 5160.915
1357.698, 6125.520
1358.756, 7377.855
1359.813, 8874.110
1360.869, 10152.62
1361.926, 10784.81
1362.983, 10214.74
1364.039, 8901.397
1365.095, 7141.605
1366.152, 5725.140
1367.207, 4625.016
1368.263, 3886.371
1369.319, 3192.312
1370.374, 2801.949
1371.430, 2424.346
1372.485, 2368.480
1373.540, 2245.340
1374.594, 2283.912
1375.649, 2395.180
1376.703, 2760.095
1377.758, 2937.633
1378.812, 3097.804
1379.866, 3430.615
1380.920, 3675.048
1381.973, 3913.082
1383.027, 4398.697
1384.080, 5098.871
1385.133, 5906.582
1386.186, 6605.800
1387.239, 7056.500
1388.291, 6841.676
1389.344, 6514.342
1390.396, 5740.544
1391.448, 5082.332
1392.500, 4930.729
1393.552, 5215.730
1394.604, 5921.344
1395.655, 6498.593
1396.707, 6598.481
1397.758, 6140.000
1398.809, 4828.145
1399.860, 3624.902
1400.910, 2677.275
1401.961, 1726.261
1403.011, 1182.854
1404.061, 954.0479
1405.111, 456.8496
1406.161, 314.2500
1407.211, 43.75195
1408.260, 42.77930
1409.310, 201.1250
1410.359, 261.5264
1411.408, 334.4277
1412.457, 610.8359
1413.506, 405.7705
1414.554, 484.2266
1415.603, 623.4395
1416.651, 514.8818
1417.699, 665.3936
1418.747, 640.7178
1419.794, 638.6211
1420.842, 487.1484
1421.889, 378.7871
1422.937, 224.9629
1423.984, 73.72754
1425.031, 429.1611
1426.077, 779.3906
1427.124, 1086.337
1428.170, 1052.820
1429.217, 977.6973
1430.263, 809.0146
1431.309, 511.9131
1432.354, 406.5215
1433.400, 170.9307
1434.445, 174.1807
1435.491, 217.2646
1436.536, 232.1797
1437.581, 546.9170
1438.625, 594.4600
1439.670, 796.7773
1440.714, 1216.866
1441.759, 1519.742
1442.803, 1941.411
1443.847, 2597.869
1444.890, 2885.104
1445.934, 3389.115
1446.978, 4002.893
1448.021, 4224.428
1449.064, 3846.714
1450.107, 3676.748
1451.150, 3221.544
1452.192, 2812.131
1453.235, 2594.555
1454.277, 2307.861
1455.319, 2367.072
1456.361, 2248.198
1457.403, 2335.260
1458.445, 2529.283
1459.486, 2706.283
1460.528, 2863.274
1461.569, 3172.268
1462.610, 3440.279
1463.651, 3916.328
1464.691, 4000.437
1465.732, 4039.624
1466.772, 4021.920
1467.812, 4106.354
1468.852, 4145.961
1469.892, 3994.771
1470.932, 4134.812
1471.971, 4248.117
1473.011, 4404.718
1474.050, 4605.646
1475.089, 4528.339
1476.128, 4794.786
1477.166, 4751.159
1478.205, 4809.578
1479.243, 4910.691
1480.282, 4646.777
1481.320, 4598.740
1482.357, 4376.963
1483.395, 4191.436
1484.433, 3858.861
1485.470, 4126.393
1486.507, 4194.248
1487.544, 4154.550
1488.581, 4068.764
1489.618, 4143.275
1490.655, 4070.300
1491.691, 4210.115
1492.727, 4067.045
1493.763, 4037.330
1494.799, 4190.814
1495.835, 4165.729
1496.871, 4121.236
1497.906, 4190.205
1498.941, 4148.486
1499.976, 4333.499
1501.011, 4289.441
1502.046, 4372.785
1503.081, 4581.086
1504.115, 4461.344
1505.149, 4743.549
1506.183, 4683.381
1507.217, 4899.476
1508.251, 5091.426
1509.285, 4979.770
1510.318, 4975.984
1511.352, 5067.238
1512.385, 5048.467
1513.418, 5049.924
1514.450, 4825.938
1515.483, 4835.109
1516.516, 4343.986
1517.548, 4312.308
1518.580, 3925.479
1519.612, 3591.789
1520.644, 3563.178
1521.675, 3174.653
1522.707, 2659.029
1523.738, 2415.836
1524.769, 1945.115
1525.800, 1921.735
1526.831, 1579.390
1527.862, 1439.242
1528.892, 1085.948
1529.923, 929.8945
1530.953, 825.1143
1531.983, 587.9795
1533.013, 630.3662
1534.042, 462.8057
1535.072, 364.1748
1536.101, 291.5234
1537.131, 3.916992
1538.160, 88.74707
1539.188, 28.21191
1540.217, 2.851563
1541.246, 2.534180
1542.274, 25.52441
1543.302, 33.21582
1544.330, 70.58887
1545.358, 0.0000000E+00
##END=



