##NAMES=Jadeite
##RRUFFID=R050220
##IDEAL CHEMISTRY=NaAlSi_2_O_6_
##LOCALITY=Clear Creek, San Benito County, California, USA
##OWNER=RRUFF
##SOURCE=Hatt Yoder
##DESCRIPTION=Aggregate of colorless bladed crystals
##STATUS=The identification of this mineral has been confirmed by X-ray diffraction and chemical analysis
##URL=rruff.info/R050220
##MEASURED CHEMISTRY=Na_1.00_Al_1.00_(Si_0.99_Al_0.01_)_2_O_6_
##PIN_ID=L00822
##ORIENTATION=Laser parallel to (1 0 1). Fiducial mark perpendicular to laser is parallel to -b [0 -1 0]
112.9460, 0.0000000E+00
114.1820, 55.65723
115.4170, 225.9639
116.6530, 234.1465
117.8880, 176.3799
119.1230, 26.64941
120.3580, 12.32520
121.5920, 54.11230
122.8270, 198.8594
124.0610, 284.9307
125.2950, 210.8369
126.5290, 174.1885
127.7630, 449.6689
128.9970, 590.0293
130.2300, 561.0664
131.4640, 479.6074
132.6970, 727.5068
133.9300, 657.6406
135.1630, 965.8965
136.3950, 930.1709
137.6280, 1100.374
138.8600, 1292.429
140.0920, 1565.269
141.3240, 1932.837
142.5560, 2146.087
143.7880, 2280.978
145.0190, 2242.490
146.2510, 1980.585
147.4820, 1663.218
148.7130, 1276.363
149.9440, 1009.993
151.1750, 928.0703
152.4050, 791.5586
153.6360, 696.4902
154.8660, 673.8340
156.0960, 584.4971
157.3260, 492.4609
158.5560, 615.7129
159.7850, 555.2432
161.0150, 545.0371
162.2440, 429.0850
163.4730, 518.3809
164.7020, 542.9180
165.9310, 473.6904
167.1590, 500.6914
168.3880, 562.9180
169.6160, 508.3672
170.8440, 378.0381
172.0720, 476.9316
173.3000, 532.0498
174.5280, 307.5098
175.7550, 373.0654
176.9820, 627.3828
178.2100, 711.3438
179.4370, 523.5010
180.6630, 347.8486
181.8900, 296.3818
183.1170, 351.0947
184.3430, 515.9785
185.5690, 445.0322
186.7950, 526.1992
188.0210, 509.3516
189.2470, 635.5059
190.4720, 888.6582
191.6970, 1105.059
192.9230, 1392.293
194.1480, 1544.514
195.3730, 1339.001
196.5970, 1170.367
197.8220, 1299.806
199.0460, 1588.324
200.2700, 2241.926
201.4940, 3161.612
202.7180, 4492.382
203.9420, 5929.240
205.1660, 6032.186
206.3890, 6164.223
207.6120, 5039.346
208.8350, 3040.559
210.0580, 1624.863
211.2810, 940.2539
212.5040, 771.7520
213.7260, 511.3535
214.9480, 470.0566
216.1700, 407.8457
217.3920, 277.7949
218.6140, 323.8320
219.8360, 437.9551
221.0570, 521.1621
222.2790, 378.4883
223.5000, 543.9492
224.7210, 442.5215
225.9410, 472.2617
227.1620, 150.1387
228.3820, 109.1719
229.6030, 9.371094
230.8230, 214.7715
232.0430, 41.31836
233.2630, 233.0293
234.4820, 112.8281
235.7020, 7.267578
236.9210, 49.73047
238.1400, 262.7871
239.3590, 188.9004
240.5780, 31.92969
241.7970, 265.2930
243.0150, 81.57031
244.2340, 101.9023
245.4520, 218.2852
246.6700, 225.7227
247.8880, 316.8398
249.1060, 461.7461
250.3230, 520.3320
251.5400, 673.9648
252.7580, 876.6445
253.9750, 1426.373
255.1920, 1981.148
256.4080, 1969.967
257.6250, 1757.832
258.8410, 1135.760
260.0580, 679.5508
261.2740, 480.7754
262.4900, 293.2578
263.7050, 105.8535
264.9210, 100.7539
266.1360, 30.78711
267.3520, 133.1973
268.5670, 127.8320
269.7820, 16.33008
270.9960, 122.6895
272.2110, 154.8828
273.4250, 20.23242
274.6400, 132.2656
275.8540, 15.63281
277.0680, 99.13477
278.2810, 338.0254
279.4950, 23.03711
280.7090, 115.1641
281.9220, 129.4004
283.1350, 133.7422
284.3480, 345.1816
285.5610, 430.7188
286.7730, 493.3477
287.9860, 650.0664
289.1980, 999.8711
290.4100, 1255.758
291.6220, 1401.727
292.8340, 1616.771
294.0460, 1761.893
295.2570, 1540.086
296.4690, 1476.350
297.6800, 1347.680
298.8910, 1285.080
300.1020, 1112.541
301.3120, 1267.064
302.5230, 1207.652
303.7330, 1456.301
304.9440, 1652.010
306.1540, 2029.771
307.3630, 2290.590
308.5730, 2842.465
309.7830, 3195.393
310.9920, 3376.725
312.2010, 2935.770
313.4100, 2774.881
314.6190, 2359.799
315.8280, 2029.051
317.0370, 1735.350
318.2450, 1810.715
319.4530, 1832.963
320.6610, 2169.430
321.8690, 2543.977
323.0770, 3250.562
324.2850, 3972.207
325.4920, 5381.895
326.6990, 7146.621
327.9060, 9409.385
329.1130, 10572.18
330.3200, 9983.570
331.5270, 7597.969
332.7330, 5334.918
333.9390, 3718.188
335.1450, 2505.221
336.3510, 1853.832
337.5570, 1309.600
338.7630, 1170.738
339.9680, 1069.926
341.1740, 564.9785
342.3790, 548.7441
343.5840, 549.6367
344.7890, 528.4453
345.9930, 430.5234
347.1980, 346.2461
348.4020, 424.5117
349.6060, 343.1992
350.8100, 427.6055
352.0140, 459.4648
353.2180, 611.9570
354.4210, 656.2754
355.6250, 704.3203
356.8280, 802.6250
358.0310, 983.9609
359.2340, 925.1641
360.4360, 1506.809
361.6390, 1817.479
362.8410, 2278.172
364.0430, 3098.887
365.2450, 3972.623
366.4470, 4854.381
367.6490, 5876.160
368.8510, 7894.959
370.0520, 10312.78
371.2530, 13779.62
372.4540, 17514.47
373.6550, 21926.35
374.8560, 24191.25
376.0560, 23696.17
377.2570, 21238.09
378.4570, 18133.03
379.6570, 15454.99
380.8570, 13969.91
382.0570, 13014.89
383.2560, 13220.89
384.4560, 13658.90
385.6550, 13685.68
386.8540, 12475.72
388.0530, 10472.76
389.2520, 7921.814
390.4510, 6225.879
391.6490, 4593.953
392.8470, 3398.043
394.0450, 2676.139
395.2430, 1941.242
396.4410, 1731.355
397.6390, 1382.479
398.8360, 1408.609
400.0340, 941.7480
401.2310, 1003.941
402.4280, 601.0938
403.6250, 695.0977
404.8210, 600.1699
406.0180, 601.3926
407.2140, 616.6426
408.4100, 590.5078
409.6060, 595.7676
410.8020, 593.5586
411.9980, 573.1895
413.1930, 531.5801
414.3890, 493.8613
415.5840, 699.2734
416.7790, 706.7051
417.9740, 874.1543
419.1680, 661.4336
420.3630, 821.8086
421.5570, 1046.307
422.7510, 977.8184
423.9450, 1154.346
425.1390, 1286.885
426.3330, 1492.439
427.5270, 1741.004
428.7200, 2060.584
429.9130, 2304.176
431.1060, 2743.777
432.2990, 2939.389
433.4920, 2817.008
434.6840, 2868.641
435.8770, 2637.279
437.0690, 2497.930
438.2610, 2097.584
439.4530, 1804.016
440.6450, 1273.918
441.8360, 1071.594
443.0280, 849.2773
444.2190, 550.9668
445.4100, 617.1914
446.6010, 376.8906
447.7920, 221.5957
448.9820, 321.3027
450.1730, 190.0156
451.3630, 65.73242
452.5530, 279.4512
453.7430, 56.89258
454.9330, 235.9688
456.1230, 91.51367
457.3120, 17.32422
458.5010, 100.4961
459.6910, 106.2734
460.8800, 64.74609
462.0680, 114.4375
463.2570, 47.62695
464.4460, 38.54102
465.6340, 176.2344
466.8220, 58.30664
468.0100, 74.02734
469.1980, 124.7441
470.3860, 164.4590
471.5730, 163.2598
472.7600, 94.36914
473.9480, 20.13086
475.1350, 96.19727
476.3210, 32.85156
477.5080, 104.7480
478.6950, 71.66016
479.8810, 106.1191
481.0670, 30.92773
482.2530, 42.60352
483.4390, 56.17188
484.6250, 49.77930
485.8100, 50.43164
486.9960, 81.12305
488.1810, 83.87891
489.3660, 92.63086
490.5510, 16.29492
491.7360, 57.20117
492.9200, 99.15625
494.1050, 14.81641
495.2890, 108.1621
496.4730, 53.89062
497.6570, 180.0039
498.8400, 43.10938
500.0240, 0.3339840
501.2070, 31.14648
502.3910, 172.9492
503.5740, 194.7402
504.7570, 256.5176
505.9400, 133.2832
507.1220, 225.1152
508.3050, 172.8555
509.4870, 415.5859
510.6690, 381.3008
511.8510, 238.0156
513.0330, 285.7227
514.2140, 726.8926
515.3960, 603.6348
516.5770, 751.4336
517.7580, 722.1445
518.9390, 1154.979
520.1200, 1582.887
521.3010, 2005.750
522.4810, 2344.434
523.6610, 2616.443
524.8420, 2620.570
526.0220, 2704.742
527.2010, 2242.633
528.3810, 1782.254
529.5610, 1141.863
530.7400, 717.4902
531.9190, 634.0684
533.0980, 653.6328
534.2770, 495.1797
535.4560, 388.7109
536.6340, 204.2324
537.8120, 132.7363
538.9910, 268.2246
540.1690, 188.6973
541.3460, 150.1523
542.5240, 13.58984
543.7020, 184.9941
544.8790, 44.38086
546.0560, 110.2598
547.2330, 220.0000
548.4100, 113.2402
549.5870, 128.4629
550.7630, 131.6680
551.9400, 91.85547
553.1160, 39.04102
554.2920, 95.92773
555.4680, 162.6016
556.6440, 186.4629
557.8190, 366.5742
558.9950, 402.6719
560.1700, 428.7480
561.3450, 339.8164
562.5200, 282.8672
563.6950, 237.8984
564.8690, 518.9102
566.0440, 265.9023
567.2180, 482.8730
568.3920, 332.8262
569.5660, 301.7539
570.7400, 381.6621
571.9130, 392.5508
573.0870, 456.4141
574.2600, 450.2559
575.4330, 543.0762
576.6060, 592.8750
577.7790, 309.6523
578.9520, 462.4062
580.1240, 215.1367
581.2960, 165.8457
582.4690, 177.5312
583.6410, 194.1934
584.8120, 357.8301
585.9840, 101.4473
587.1560, 254.0352
588.3270, 168.5977
589.4980, 330.1367
590.6690, 260.6523
591.8400, 207.1445
593.0110, 180.6094
594.1810, 50.05469
595.3510, 76.22461
596.5220, 5.800781
597.6920, 3.779297
598.8610, 14.57617
600.0310, 166.2480
601.2010, 8.445313
602.3700, 46.03320
603.5390, 118.5430
604.7080, 77.32617
605.8770, 292.7148
607.0460, 2.847656
608.2140, 255.6758
609.3830, 282.4609
610.5510, 263.4434
611.7190, 187.1777
612.8870, 17.11523
614.0550, 121.2207
615.2220, 33.49023
616.3900, 19.03711
617.5570, 360.4062
618.7240, 271.8770
619.8910, 335.7793
621.0580, 112.5352
622.2240, 215.9238
623.3910, 512.2539
624.5570, 241.7285
625.7230, 505.4961
626.8890, 454.1445
628.0550, 373.8887
629.2200, 191.3672
630.3860, 116.2070
631.5510, 330.5137
632.7160, 323.3965
633.8810, 198.5703
635.0460, 92.29688
636.2100, 341.3965
637.3750, 218.1797
638.5390, 256.2461
639.7030, 68.55859
640.8670, 176.3984
642.0310, 180.2695
643.1950, 354.2480
644.3580, 359.2031
645.5210, 444.1387
646.6850, 149.0605
647.8480, 377.9590
649.0100, 229.8555
650.1730, 283.0820
651.3350, 299.6035
652.4980, 502.7969
653.6600, 24.73242
654.8220, 351.9238
655.9840, 171.7441
657.1450, 208.6660
658.3070, 167.3203
659.4680, 147.0742
660.6300, 155.4590
661.7910, 208.9629
662.9510, 120.6426
664.1120, 306.6035
665.2730, 243.3477
666.4330, 137.6250
667.5930, 413.4395
668.7530, 294.4102
669.9130, 193.9668
671.0730, 239.6934
672.2320, 282.2012
673.3920, 339.9277
674.5510, 448.1367
675.7100, 396.3281
676.8690, 358.7383
678.0280, 476.1816
679.1860, 427.5723
680.3450, 717.9375
681.5030, 768.5449
682.6610, 785.1797
683.8190, 796.4863
684.9770, 980.9551
686.1340, 1261.330
687.2920, 1717.564
688.4490, 1841.773
689.6060, 2100.961
690.7630, 2844.484
691.9200, 3637.053
693.0760, 4388.887
694.2330, 5454.959
695.3890, 7228.852
696.5450, 8863.941
697.7010, 10952.22
698.8570, 12443.22
700.0130, 13525.19
701.1680, 13039.02
702.3230, 11150.16
703.4780, 9039.301
704.6330, 7386.176
705.7880, 5395.145
706.9430, 4386.311
708.0970, 3361.131
709.2520, 2719.912
710.4060, 2391.668
711.5600, 1779.400
712.7140, 1598.111
713.8670, 1228.797
715.0210, 1139.459
716.1740, 1013.100
717.3270, 673.7148
718.4800, 855.3066
719.6330, 615.8750
720.7860, 681.4219
721.9380, 543.9395
723.0910, 425.4375
724.2430, 370.9121
725.3950, 482.8320
726.5470, 304.2617
727.6980, 301.6660
728.8500, 230.0469
730.0010, 431.4062
731.1530, 304.7402
732.3040, 374.0547
733.4550, 183.4102
734.6050, 159.5293
735.7560, 179.9043
736.9060, 124.6992
738.0560, 193.8086
739.2060, 160.9199
740.3560, 99.31445
741.5060, 121.3398
742.6560, 148.9316
743.8050, 151.8789
744.9540, 75.11523
746.1030, 25.46289
747.2520, 262.3652
748.4010, 127.2480
749.5500, 203.1094
750.6980, 206.8574
751.8460, 121.0176
752.9950, 134.2578
754.1420, 251.3770
755.2900, 135.1875
756.4380, 212.9766
757.5850, 168.8164
758.7330, 181.9746
759.8800, 277.1914
761.0270, 369.9570
762.1730, 347.7207
763.3200, 350.4824
764.4670, 276.6602
765.6130, 271.5293
766.7590, 227.2988
767.9050, 517.0781
769.0510, 285.5898
770.1960, 296.6816
771.3420, 615.4648
772.4870, 608.3652
773.6320, 497.7598
774.7770, 665.2148
775.9220, 512.3750
777.0670, 949.9102
778.2110, 1135.348
779.3560, 1110.092
780.5000, 979.8164
781.6440, 1128.529
782.7880, 963.2246
783.9320, 745.3184
785.0750, 391.8984
786.2180, 353.3945
787.3620, 104.5723
788.5050, 3.810547
789.6480, 15.02539
790.7900, 170.1543
791.9330, 188.1191
793.0750, 207.7012
794.2170, 155.6855
795.3590, 52.96484
796.5010, 244.2305
797.6430, 55.30469
798.7850, 35.44336
799.9260, 236.6699
801.0670, 115.6426
802.2080, 161.8340
803.3490, 53.83203
804.4900, 12.08203
805.6310, 90.25195
806.7710, 273.1699
807.9110, 137.2207
809.0510, 248.2871
810.1910, 124.6152
811.3310, 40.64648
812.4710, 39.65625
813.6100, 209.6426
814.7490, 178.7969
815.8880, 293.0586
817.0270, 293.9941
818.1660, 127.0215
819.3050, 103.9238
820.4430, 211.8164
821.5820, 179.6895
822.7200, 201.5527
823.8580, 230.2422
824.9950, 257.3164
826.1330, 195.1738
827.2710, 98.01562
828.4080, 45.16211
829.5450, 218.6094
830.6820, 265.3691
831.8190, 19.88672
832.9560, 169.8164
834.0920, 6.505859
835.2280, 335.1660
836.3650, 234.8105
837.5010, 25.44141
838.6360, 127.0508
839.7720, 120.6406
840.9080, 345.2148
842.0430, 148.7754
843.1780, 95.32031
844.3130, 170.8457
845.4480, 375.3574
846.5830, 337.8555
847.7170, 259.3379
848.8520, 373.8066
849.9860, 321.2617
851.1200, 171.7012
852.2540, 267.1289
853.3870, 478.5410
854.5210, 562.9375
855.6540, 504.3223
856.7880, 475.6953
857.9210, 540.0527
859.0540, 437.3984
860.1860, 356.7305
861.3190, 463.0469
862.4510, 597.3555
863.5840, 606.6504
864.7160, 594.5215
865.8480, 326.2012
866.9790, 481.4609
868.1110, 383.7031
869.2420, 371.9414
870.3740, 447.0977
871.5050, 319.1484
872.6360, 406.8730
873.7660, 547.2500
874.8970, 527.5156
876.0280, 503.6426
877.1580, 631.5371
878.2880, 586.5273
879.4180, 176.6855
880.5480, 608.8574
881.6770, 310.9023
882.8070, 463.1914
883.9360, 240.4922
885.0650, 454.5547
886.1940, 146.8867
887.3230, 448.2109
888.4520, 173.3281
889.5800, 358.5039
890.7090, 55.83984
891.8370, 327.0391
892.9650, 120.3672
894.0930, 43.68359
895.2200, 216.9922
896.3480, 275.3320
897.4750, 230.6602
898.6020, 249.9766
899.7290, 35.28906
900.8560, 108.5820
901.9830, 188.8633
903.1090, 154.1367
904.2360, 335.4023
905.3620, 58.65625
906.4880, 232.8984
907.6140, 107.1289
908.7400, 191.3477
909.8650, 33.44141
910.9900, 37.75000
912.1160, 19.06641
913.2410, 61.08594
914.3660, 237.2305
915.4900, 177.3633
916.6150, 163.4844
917.7390, 206.5977
918.8640, 29.30078
919.9880, 128.7656
921.1120, 68.17578
922.2350, 127.1680
923.3590, 124.4414
924.4820, 74.72266
925.6060, 97.70312
926.7290, 0.9335940
927.8520, 7.539063
928.9740, 24.62109
930.0970, 137.0703
931.2190, 101.0000
932.3420, 127.7969
933.4640, 89.95703
934.5860, 129.9102
935.7080, 65.31641
936.8290, 240.1211
937.9510, 12.25000
939.0720, 14.81250
940.1930, 88.29688
941.3140, 12.40625
942.4350, 185.2656
943.5560, 170.7422
944.6760, 31.40625
945.7960, 211.8125
946.9170, 186.7070
948.0370, 185.5898
949.1560, 99.78125
950.2760, 20.75781
951.3960, 223.3203
952.5150, 51.12891
953.6340, 271.1406
954.7530, 404.3438
955.8720, 264.8906
956.9910, 221.4023
958.1090, 245.9375
959.2280, 243.4609
960.3460, 108.9805
961.4640, 188.9297
962.5820, 440.6367
963.6990, 227.6914
964.8170, 400.1797
965.9340, 387.6641
967.0510, 421.4609
968.1690, 329.8867
969.2850, 373.7852
970.4020, 377.4883
971.5190, 431.0117
972.6350, 475.5781
973.7510, 563.8008
974.8670, 729.0039
975.9830, 819.5273
977.0990, 1027.777
978.2150, 1230.879
979.3300, 1424.289
980.4450, 1944.715
981.5600, 1929.133
982.6750, 2560.555
983.7900, 3238.961
984.9050, 3823.367
986.0190, 3779.766
987.1340, 3333.160
988.2480, 2949.551
989.3620, 2415.934
990.4750, 2123.031
991.5890, 1730.691
992.7020, 1525.062
993.8160, 1326.430
994.9290, 1109.809
996.0420, 1014.188
997.1550, 1146.594
998.2670, 1027.000
999.3800, 1027.395
1000.492, 921.8008
1001.604, 929.1953
1002.716, 943.3125
1003.828, 910.2539
1004.940, 854.6406
1006.051, 845.0156
1007.163, 988.3906
1008.274, 796.7656
1009.385, 946.2617
1010.496, 825.6250
1011.606, 933.9844
1012.717, 1083.344
1013.827, 946.7422
1014.937, 996.1328
1016.047, 1313.547
1017.157, 1195.078
1018.267, 1411.488
1019.377, 1613.301
1020.486, 1501.699
1021.595, 1833.352
1022.704, 2118.742
1023.813, 2242.121
1024.922, 2664.160
1026.030, 3183.531
1027.139, 3547.848
1028.247, 3777.820
1029.355, 4566.777
1030.463, 5385.121
1031.571, 6966.473
1032.678, 8356.961
1033.786, 9920.883
1034.893, 12478.11
1036.000, 15392.44
1037.107, 18374.76
1038.214, 21196.08
1039.321, 23071.08
1040.427, 22999.39
1041.533, 20936.58
1042.639, 17913.88
1043.745, 14766.13
1044.851, 11783.02
1045.957, 9069.516
1047.062, 7464.496
1048.168, 5967.758
1049.273, 4614.012
1050.378, 3904.266
1051.482, 3368.512
1052.587, 2686.336
1053.692, 2711.570
1054.796, 1870.945
1055.900, 2315.617
1057.004, 1710.828
1058.108, 1788.844
1059.212, 1208.449
1060.315, 1501.992
1061.418, 1212.172
1062.522, 1033.762
1063.625, 859.0312
1064.728, 810.5117
1065.830, 873.7930
1066.933, 896.0156
1068.035, 1194.301
1069.137, 934.4766
1070.239, 698.5742
1071.341, 866.0156
1072.443, 571.9922
1073.545, 564.2148
1074.646, 741.6719
1075.747, 774.9531
1076.848, 754.2148
1077.949, 865.1953
1079.050, 742.4531
1080.150, 806.7070
1081.251, 713.6992
1082.351, 705.8906
1083.451, 716.6875
1084.551, 707.6484
1085.651, 709.7812
1086.750, 750.2578
1087.850, 718.5117
1088.949, 507.7461
1090.048, 382.9805
1091.147, 410.2109
1092.246, 545.4375
1093.345, 372.6602
1094.443, 374.8789
1095.541, 309.0977
1096.639, 140.3281
1097.737, 445.5586
1098.835, 17.79688
1099.933, 202.0312
1101.030, 439.2617
1102.128, 277.5000
1103.225, 338.7305
1104.322, 227.9609
1105.419, 140.1875
1106.515, 411.4141
1107.612, 61.39062
1108.708, 67.61328
1109.804, 230.8320
1110.900, 193.0508
1111.996, 258.2695
1113.092, 315.4805
1114.187, 365.6680
1115.283, 315.8945
1116.378, 512.1172
1117.473, 813.3359
1118.568, 877.5508
1119.662, 794.7617
1120.757, 1151.973
1121.851, 974.1758
1122.946, 1093.383
1124.040, 932.5859
1125.134, 557.7812
1126.227, 716.3750
1127.321, 355.8398
1128.414, 204.7812
1129.508, 330.9805
1130.601, 187.1602
1131.693, 237.8242
1132.786, 195.9961
1133.879, 13.83203
1134.971, 106.6836
1136.064, 74.41797
1137.156, 76.52344
1138.248, 296.6250
1139.339, 174.7188
1140.431, 20.19141
1141.522, 318.8789
1142.614, 128.9414
1143.705, 201.0000
1144.796, 160.0625
1145.887, 357.1172
1146.977, 177.1680
1148.068, 31.21875
1149.158, 281.2656
1150.248, 199.6953
1151.338, 317.2305
1152.428, 5.847656
1153.518, 176.0547
1154.607, 298.9531
1155.696, 66.85547
1156.785, 82.75391
1157.874, 50.64844
1158.963, 284.5391
1160.052, 139.5703
1161.141, 90.23047
1162.229, 227.6211
1163.317, 21.41797
1164.405, 149.2109
1165.493, 290.5195
1166.581, 151.3086
1167.668, 65.09766
1168.756, 241.8828
1169.843, 453.6641
1170.930, 222.4492
1172.017, 57.22656
1173.103, 255.0039
1174.190, 60.21875
1175.276, 137.5195
1176.363, 54.26172
1177.449, 304.0156
1178.535, 295.7695
1179.620, 77.51562
1180.706, 384.2656
1181.791, 384.0078
1182.877, 140.7539
1183.962, 110.5039
1185.047, 79.25781
1186.131, 61.02344
1187.216, 275.8281
1188.300, 291.6289
1189.385, 39.43359
1190.469, 96.25781
1191.553, 88.91016
1192.637, 290.8633
1193.720, 166.6484
1194.804, 15.42578
1195.887, 278.1953
1196.970, 84.97266
1198.053, 267.7422
1199.136, 349.5078
1200.219, 0.2929690
1201.301, 141.0664
1202.383, 24.84375
1203.465, 158.6250
1204.547, 208.3984
1205.629, 35.17578
1206.711, 183.9492
1207.792, 452.7266
1208.874, 153.5000
1209.955, 356.2695
1211.036, 11.03516
1212.117, 52.80469
1213.198, 15.59375
1214.278, 265.3828
1215.359, 53.17188
1216.439, 138.0273
1217.519, 31.68750
1218.599, 238.4062
1219.678, 85.12109
1220.758, 224.8398
1221.837, 322.5508
1222.917, 197.2695
1223.996, 72.98047
1225.075, 187.6953
1226.153, 299.4023
1227.232, 232.1094
1228.310, 27.82031
1229.389, 201.3867
1230.467, 268.0938
1231.545, 34.79297
1232.622, 85.49609
1233.700, 300.1953
1234.777, 211.8984
1235.855, 99.60156
1236.932, 53.69922
1238.009, 245.9648
1239.086, 142.6289
1240.162, 309.2969
1241.239, 92.95703
1242.315, 221.6172
1243.391, 130.2812
1244.467, 486.9414
1245.543, 270.0469
1246.619, 249.7070
1247.694, 325.3672
1248.769, 135.0273
1249.844, 356.6875
1250.919, 305.3477
1251.994, 155.0078
1253.069, 66.66797
1254.144, 44.32812
1255.218, 48.83984
1256.292, 30.38672
1257.366, 102.7812
1258.440, 19.76562
1259.514, 100.3125
1260.587, 17.13672
1261.661, 113.3984
1262.734, 237.9492
1263.807, 166.7773
1264.880, 472.4922
1265.952, 313.0430
1267.025, 339.5938
1268.097, 316.1484
1269.170, 175.7031
1270.242, 428.1250
1271.314, 245.6992
1272.385, 397.2773
1273.457, 23.90234
1274.528, 314.5352
1275.600, 291.1719
1276.671, 122.8047
1277.742, 258.3320
1278.812, 301.9727
1279.883, 236.2070
1280.954, 107.8555
1282.024, 383.2422
1283.094, 177.8945
1284.164, 67.55078
1285.234, 317.2109
1286.303, 207.8711
1287.373, 120.5273
1288.442, 389.1992
1289.511, 287.2734
1290.580, 35.04688
1291.649, 103.6250
1292.718, 333.1523
1293.786, 34.16797
1294.855, 205.5039
1295.923, 215.1797
1296.991, 320.8633
1298.059, 253.6758
1299.126, 316.3633
1300.194, 87.05859
1301.261, 67.76172
1302.328, 122.4766
1303.395, 236.5195
1304.462, 231.2344
1305.529, 273.7344
1306.596, 266.4570
1307.662, 217.3516
1308.728, 85.91406
1309.794, 180.6523
1310.860, 197.3906
1311.926, 377.1367
1312.991, 559.8867
1314.057, 376.6445
1315.122, 492.4102
1316.187, 405.1797
1317.252, 377.9531
1318.317, 608.7109
1319.381, 468.5000
1320.446, 591.9688
1321.510, 458.7734
1322.574, 336.5781
1323.638, 392.1797
1324.702, 420.0000
1325.766, 505.8203
1326.829, 111.6445
1327.892, 510.4805
1328.956, 475.4922
1330.019, 167.3359
1331.081, 370.1172
1332.144, 434.9688
1333.206, 125.8242
1334.269, 476.6719
1335.331, 163.5430
1336.393, 253.4141
1337.455, 401.3008
1338.516, 576.1875
1339.578, 152.7969
1340.639, 261.6953
1341.701, 350.4609
1342.762, 552.3711
1343.822, 340.2969
1344.883, 362.9883
1345.944, 139.9102
1347.004, 140.8516
1348.064, 163.8516
1349.124, 454.7656
1350.184, 303.7109
1351.244, 299.6602
1352.304, 441.6133
1353.363, 334.5781
1354.422, 521.5508
1355.481, 182.5352
1356.540, 69.51562
1357.599, 183.4805
1358.657, 71.21094
1359.716, 92.44922
1360.774, 255.4453
1361.832, 237.4453
1362.890, 516.4570
1363.948, 118.4805
1365.006, 40.76172
1366.063, 369.8047
1367.120, 244.8516
1368.178, 239.9102
1369.234, 219.9805
1370.291, 497.0586
1371.348, 324.1484
1372.404, 110.7578
1373.461, 14.33203
1374.517, 288.4297
1375.573, 529.5430
1376.629, 348.6602
1377.684, 258.7852
1378.740, 29.91797
1379.795, 252.0664
1380.850, 147.2266
1381.905, 296.3945
1382.960, 406.1758
1384.015, 219.0938
1385.070, 165.5430
1386.124, 18.74609
1387.178, 104.1094
1388.232, 599.8633
1389.286, 151.8906
1390.340, 279.1602
1391.393, 139.5469
1392.447, 380.7656
1393.500, 143.0977
1394.553, 324.4414
1395.606, 170.8008
1396.659, 298.1719
1397.711, 19.96484
1398.764, 14.37891
1399.816, 95.43750
1400.868, 257.8867
1401.920, 51.34766
1402.972, 8.828125
1404.023, 224.3242
1405.075, 310.8438
1406.126, 185.3828
1407.177, 108.0000
1408.228, 318.6289
1409.279, 296.2930
1410.330, 162.9766
1411.380, 329.6758
1412.431, 288.4570
1413.481, 304.2109
1414.531, 487.9805
1415.580, 23.78125
1416.630, 368.6406
1417.680, 19.94141
1418.729, 85.80469
1419.778, 73.68750
1420.827, 65.08984
1421.876, 130.0312
1422.925, 246.2148
1423.973, 8.148438
1425.022, 265.4961
1426.070, 306.1523
1427.118, 21.82812
1428.166, 469.5625
1429.214, 271.2578
1430.261, 176.9844
1431.309, 32.28906
1432.356, 336.4414
1433.403, 307.1719
1434.450, 534.9023
1435.497, 446.6133
1436.543, 459.3555
1437.590, 598.1250
1438.636, 450.9180
1439.682, 400.8203
1440.728, 510.8828
1441.774, 584.6016
1442.819, 676.5898
1443.865, 499.1680
1444.910, 558.3438
1445.955, 370.2500
1447.000, 562.6758
1448.045, 841.4453
1449.090, 663.2266
1450.134, 485.0273
1451.178, 721.8516
1452.223, 732.6953
1453.267, 846.5547
1454.310, 681.4336
1455.354, 689.3242
1456.398, 737.2461
1457.441, 733.1875
1458.484, 833.1484
1459.527, 671.2188
1460.570, 617.3086
1461.613, 598.4219
1462.655, 415.5547
1463.698, 231.7148
1464.740, 387.8906
1465.782, 295.0898
1466.824, 188.3125
1467.866, 582.5586
1468.907, 299.8516
1469.948, 211.1953
1470.990, 387.5586
1472.031, 211.9531
1473.072, 10.75781
1474.112, 612.1406
1475.153, 550.5625
1476.194, 605.0117
1477.234, 367.4844
1478.274, 179.0430
1479.314, 390.7148
1480.354, 554.4336
1481.393, 380.1641
1482.433, 219.9297
1483.472, 323.6289
1484.511, 324.3555
1485.550, 232.0742
1486.589, 386.6641
1487.628, 429.2812
1488.666, 159.9258
1489.704, 251.5977
1490.743, 326.2930
1491.781, 89.01562
1492.819, 304.7578
1493.856, 343.5273
1494.894, 202.3242
1495.931, 440.1680
1496.968, 91.05078
1498.005, 311.7461
1499.042, 223.6875
1500.079, 539.6602
1501.115, 354.6719
1502.152, 368.3047
1503.188, 254.3633
1504.224, 248.2500
1505.260, 248.9453
1506.296, 240.7617
1507.331, 258.9648
1508.367, 196.1875
1509.402, 164.4102
1510.437, 171.7031
1511.472, 55.04688
1512.507, 89.44141
1513.541, 62.12109
1514.576, 367.3750
1515.610, 293.9258
1516.644, 281.5273
1517.678, 209.1797
1518.712, 199.8867
1519.746, 434.6523
1520.779, 147.4727
1521.813, 65.65234
1522.846, 580.2617
1523.879, 210.6172
1524.912, 309.5703
1525.944, 489.8242
1526.977, 425.2422
1528.009, 256.8320
1529.041, 449.5078
1530.073, 328.2812
1531.105, 313.1523
1532.137, 474.1289
1533.168, 298.2188
1534.200, 398.4180
1535.231, 375.7500
1536.262, 152.2109
1537.293, 213.8555
1538.324, 494.6484
1539.354, 537.6016
1540.385, 349.7227
1541.415, 652.4844
1542.445, 240.9492
1543.475, 410.1836
1544.505, 254.5938
1545.534, 407.2070
1546.564, 125.7578
1547.593, 169.9609
1548.622, 279.2891
1549.651, 150.4766
1550.680, 515.4688
1551.708, 141.2148
1552.737, 649.6406
1553.765, 443.2578
1554.793, 545.7109
1555.821, 282.4727
1556.849, 268.8516
1557.877, 396.6992
1558.904, 322.0039
1559.932, 279.1172
1560.959, 322.5000
1561.986, 363.6328
1563.013, 170.2539
1564.039, 520.3906
1565.066, 277.4531
1566.092, 304.5078
1567.119, 122.8359
1568.145, 508.4805
1569.170, 2.582031
1570.196, 0.0000000E+00
##END=



