##NAMES=Jadeite
##RRUFFID=R050220
##IDEAL CHEMISTRY=NaAlSi_2_O_6_
##LOCALITY=Clear Creek, San Benito County, California, USA
##OWNER=RRUFF
##SOURCE=Hatt Yoder
##DESCRIPTION=Aggregate of colorless bladed crystals
##STATUS=The identification of this mineral has been confirmed by X-ray diffraction and chemical analysis
##URL=rruff.info/R050220
##MEASURED CHEMISTRY=Na_1.00_Al_1.00_(Si_0.99_Al_0.01_)_2_O_6_
##PIN_ID=L00896
##ORIENTATION=Laser parallel to a* (1 0 0). Fiducial mark perpendicular to laser is parallel to b [0 1 0]
112.9460, 0.0000000E+00
114.1820, 201.8794
115.4170, 248.7827
116.6530, 212.6377
117.8880, 108.1191
119.1230, 114.8496
120.3580, 153.9688
121.5920, 53.78613
122.8270, 284.0449
124.0610, 393.3184
125.2950, 436.1191
126.5290, 647.3760
127.7630, 723.6846
128.9970, 931.6367
130.2300, 810.8652
131.4640, 683.3350
132.6970, 480.0273
133.9300, 260.0098
135.1630, 331.4053
136.3950, 350.0664
137.6280, 549.0137
138.8600, 808.7051
140.0920, 1134.734
141.3240, 1449.063
142.5560, 1741.962
143.7880, 2129.191
145.0190, 2242.683
146.2510, 2321.390
147.4820, 1853.130
148.7130, 1329.907
149.9440, 739.7256
151.1750, 438.5879
152.4050, 310.8213
153.6360, 99.70508
154.8660, 106.8486
156.0960, 107.9414
157.3260, 82.00488
158.5560, 31.01953
159.7850, 2.2461001E-02
161.0150, 45.01270
162.2440, 109.0088
163.4730, 129.9619
164.7020, 165.9316
165.9310, 19.90430
167.1590, 54.89062
168.3880, 97.89551
169.6160, 53.92578
170.8440, 1.4648000E-02
172.0720, 152.2441
173.3000, 29.69043
174.5280, 10.17480
175.7550, 29.69727
176.9820, 129.3506
178.2100, 116.8115
179.4370, 217.3428
180.6630, 277.9443
181.8900, 382.3369
183.1170, 519.3330
184.3430, 646.1162
185.5690, 814.9570
186.7950, 967.8398
188.0210, 1246.729
189.2470, 2013.643
190.4720, 2674.084
191.6970, 3606.359
192.9230, 4573.391
194.1480, 5082.351
195.3730, 4979.804
196.5970, 5065.414
197.8220, 5747.086
199.0460, 7118.811
200.2700, 8861.589
201.4940, 11496.42
202.7180, 13861.30
203.9420, 15873.23
205.1660, 15596.22
206.3890, 13527.25
207.6120, 10525.33
208.8350, 7327.439
210.0580, 4465.572
211.2810, 2745.723
212.5040, 1602.890
213.7260, 1121.104
214.9480, 806.3652
216.1700, 571.6748
217.3920, 709.0176
218.6140, 674.4385
219.8360, 794.9824
221.0570, 887.6523
222.2790, 1062.377
223.5000, 939.1367
224.7210, 890.9707
225.9410, 623.8457
227.1620, 338.7734
228.3820, 323.7500
229.6030, 19.17871
230.8230, 91.94727
232.0430, 112.1660
233.2630, 66.45996
234.4820, 6.805664
235.7020, 113.8213
236.9210, 88.42090
238.1400, 62.99219
239.3590, 75.94922
240.5780, 32.94629
241.7970, 38.45605
243.0150, 206.9932
244.2340, 388.5566
245.4520, 628.3018
246.6700, 1168.734
247.8880, 1359.330
249.1060, 1707.863
250.3230, 2323.367
251.5400, 3289.902
252.7580, 4130.463
253.9750, 5001.051
255.1920, 5716.665
256.4080, 5846.307
257.6250, 5151.973
258.8410, 3759.666
260.0580, 2472.674
261.2740, 1335.168
262.4900, 668.9648
263.7050, 272.9766
264.9210, 87.15527
266.1360, 185.4639
267.3520, 24.12012
268.5670, 54.62207
269.7820, 95.05957
270.9960, 87.45801
272.2110, 56.17188
273.4250, 83.84082
274.6400, 98.45117
275.8540, 141.2705
277.0680, 51.97363
278.2810, 131.8047
279.4950, 291.6143
280.7090, 416.4551
281.9220, 622.2314
283.1350, 788.0391
284.3480, 1045.760
285.5610, 1271.517
286.7730, 1528.309
287.9860, 1898.134
289.1980, 2233.988
290.4100, 2776.849
291.6220, 3027.732
292.8340, 3326.640
294.0460, 3447.569
295.2570, 3447.521
296.4690, 3511.497
297.6800, 3950.493
298.8910, 4124.510
300.1020, 4764.544
301.3120, 5619.596
302.5230, 6689.664
303.7330, 8026.766
304.9440, 9471.578
306.1540, 11404.66
307.3630, 13420.79
308.5730, 15726.27
309.7830, 16736.44
310.9920, 16621.63
312.2010, 15429.83
313.4100, 13072.05
314.6190, 10625.29
315.8280, 8586.561
317.0370, 7076.849
318.2450, 6232.135
319.4530, 6174.394
320.6610, 6208.842
321.8690, 6593.078
323.0770, 7361.785
324.2850, 8307.601
325.4920, 9581.957
326.6990, 10829.41
327.9060, 11561.74
329.1130, 11804.35
330.3200, 11263.73
331.5270, 9129.165
332.7330, 7002.636
333.9390, 5075.529
335.1450, 3739.747
336.3510, 2607.282
337.5570, 1998.784
338.7630, 1678.268
339.9680, 1428.684
341.1740, 1101.138
342.3790, 942.4346
343.5840, 919.6992
344.7890, 745.3340
345.9930, 756.8486
347.1980, 886.7197
348.4020, 863.6953
349.6060, 970.8164
350.8100, 895.4092
352.0140, 1157.423
353.2180, 1419.047
354.4210, 1597.703
355.6250, 1967.417
356.8280, 2595.146
358.0310, 3001.890
359.2340, 3975.684
360.4360, 5077.490
361.6390, 6763.311
362.8410, 8817.145
364.0430, 11442.99
365.2450, 14190.85
366.4470, 17067.72
367.6490, 19805.60
368.8510, 23260.50
370.0520, 27535.41
371.2530, 32654.32
372.4540, 38120.24
373.6550, 42734.19
374.8560, 44950.84
376.0560, 44435.80
377.2570, 40806.76
378.4570, 37010.74
379.6570, 31424.56
380.8570, 26365.47
382.0570, 23426.79
383.2560, 21864.44
384.4560, 21247.46
385.6550, 20280.48
386.8540, 19015.51
388.0530, 17120.56
389.2520, 15103.60
390.4510, 12568.66
391.6490, 10120.72
392.8470, 7848.787
394.0450, 5843.863
395.2430, 4515.949
396.4410, 3324.041
397.6390, 2601.143
398.8360, 2172.250
400.0340, 1886.366
401.2310, 1530.488
402.4280, 1407.618
403.6250, 1300.755
404.8210, 1184.908
406.0180, 1117.793
407.2140, 1047.251
408.4100, 1017.438
409.6060, 1028.636
410.8020, 1026.843
411.9980, 1067.734
413.1930, 1161.153
414.3890, 1215.458
415.5840, 1310.174
416.7790, 1527.422
417.9740, 1685.676
419.1680, 1736.789
420.3630, 2083.059
421.5570, 2320.610
422.7510, 2851.894
423.9450, 3391.187
425.1390, 3999.484
426.3330, 4632.792
427.5270, 5377.104
428.7200, 6059.424
429.9130, 6823.750
431.1060, 7612.086
432.2990, 8164.426
433.4920, 8301.773
434.6840, 8322.129
435.8770, 7778.488
437.0690, 6893.855
438.2610, 5834.227
439.4530, 4929.605
440.6450, 4037.991
441.8360, 3264.811
443.0280, 2425.775
444.2190, 2016.178
445.4100, 1486.583
446.6010, 1200.995
447.7920, 1023.427
448.9820, 810.8633
450.1730, 675.3047
451.3630, 578.7510
452.5530, 339.2217
453.7430, 263.6982
454.9330, 161.1777
456.1230, 293.6621
457.3120, 199.1504
458.5010, 226.4297
459.6910, 7.3242001E-02
460.8800, 128.4238
462.0680, 68.13086
463.2570, 4.330078
464.4460, 11.07520
465.6340, 87.74316
466.8220, 56.82031
468.0100, 4.690430
469.1980, 113.8340
470.3860, 30.55957
471.5730, 17.03711
472.7600, 63.23340
473.9480, 45.31641
475.1350, 33.54785
476.3210, 31.34375
477.5080, 0.5595700
478.6950, 44.88477
479.8810, 59.88086
481.0670, 81.38867
482.2530, 36.44434
483.4390, 49.86523
484.6250, 58.89746
485.8100, 77.79199
486.9960, 16.46582
488.1810, 3.276367
489.3660, 9.009766
490.5510, 26.51855
491.7360, 60.31055
492.9200, 50.85449
494.1050, 57.84277
495.2890, 132.2959
496.4730, 167.5000
497.6570, 40.71094
498.8400, 143.8301
500.0240, 267.0273
501.2070, 152.3701
502.3910, 369.4893
503.5740, 236.5996
504.7570, 437.7061
505.9400, 458.8096
507.1220, 700.9102
508.3050, 790.0088
509.4870, 924.1025
510.6690, 1199.193
511.8510, 1564.281
513.0330, 1862.367
514.2140, 2451.449
515.3960, 2900.525
516.5770, 3886.602
517.7580, 4577.679
518.9390, 5437.752
520.1200, 6770.824
521.3010, 7590.890
522.4810, 9000.954
523.6610, 9694.040
524.8420, 9904.147
526.0220, 9237.260
527.2010, 7873.391
528.3810, 6239.517
529.5610, 4862.640
530.7400, 3554.760
531.9190, 2459.880
533.0980, 1947.997
534.2770, 1610.110
535.4560, 1099.223
536.6340, 833.3506
537.8120, 640.4756
538.9910, 622.5957
540.1690, 481.7139
541.3460, 406.9961
542.5240, 311.9346
543.7020, 311.0361
544.8790, 309.1338
546.0560, 357.2275
547.2330, 392.3428
548.4100, 372.4521
549.5870, 423.5586
550.7630, 553.6602
551.9400, 569.7715
553.1160, 779.8926
554.2920, 845.0254
555.4680, 1227.166
556.6440, 1145.320
557.8190, 1355.001
558.9950, 1491.524
560.1700, 1529.853
561.3450, 1604.047
562.5200, 1540.234
563.6950, 1319.430
564.8690, 1156.619
566.0440, 1261.801
567.2180, 1231.976
568.3920, 1401.145
569.5660, 1576.307
570.7400, 1746.462
571.9130, 2170.609
573.0870, 2573.752
574.2600, 2923.886
575.4330, 3121.014
576.6060, 2999.133
577.7790, 2596.245
578.9520, 2280.350
580.1240, 2010.448
581.2960, 1461.537
582.4690, 1225.621
583.6410, 1135.695
584.8120, 1183.764
585.9840, 1252.823
587.1560, 1479.875
588.3270, 1458.918
589.4980, 1300.954
590.6690, 1367.982
591.8400, 1090.002
593.0110, 823.0127
594.1810, 499.0146
595.3510, 356.0098
596.5220, 184.9941
597.6920, 236.9707
598.8610, 9.059570
600.0310, 111.8740
601.2010, 170.7500
602.3700, 0.6660160
603.5390, 92.55273
604.7080, 105.7539
605.8770, 117.9648
607.0460, 50.28418
608.2140, 79.43359
609.3830, 84.13184
610.5510, 82.76172
611.7190, 16.23926
612.8870, 19.63184
614.0550, 110.7461
615.2220, 45.20801
616.3900, 180.2803
617.5570, 43.64160
618.7240, 11.09863
619.8910, 31.48828
621.0580, 236.8838
622.2240, 95.24805
623.3910, 250.6465
624.5570, 22.99414
625.7230, 208.3271
626.8890, 302.0605
628.0550, 97.25195
629.2200, 75.59375
630.3860, 44.58594
631.5510, 119.4814
632.7160, 87.61426
633.8810, 50.56445
635.0460, 66.45996
636.2100, 48.24512
637.3750, 143.9951
638.5390, 79.16016
639.7030, 54.32422
640.8670, 114.5195
642.0310, 69.55859
643.1950, 137.6348
644.3580, 274.7051
645.5210, 223.7715
646.6850, 155.8301
647.8480, 229.8926
649.0100, 264.9473
650.1730, 241.9941
651.3350, 392.0410
652.4980, 178.0801
653.6600, 181.1426
654.8220, 180.2119
655.9840, 241.2744
657.1450, 253.3311
658.3070, 251.3799
659.4680, 204.4209
660.6300, 246.4580
661.7910, 207.4893
662.9510, 368.5303
664.1120, 392.5645
665.2730, 449.6104
666.4330, 450.7451
667.5930, 436.7744
668.7530, 596.9590
669.9130, 538.1865
671.0730, 658.1133
672.2320, 784.2676
673.3920, 844.4521
674.5510, 1010.989
675.7100, 1104.449
676.8690, 1279.880
678.0280, 1388.738
679.1860, 1643.903
680.3450, 1932.854
681.5030, 2117.847
682.6610, 2667.781
683.8190, 3128.707
684.9770, 3951.882
686.1340, 4675.600
687.2920, 5593.508
688.4490, 7022.789
689.6060, 8783.673
690.7630, 11200.04
691.9200, 14087.75
693.0760, 17944.44
694.2330, 21994.36
695.3890, 27130.20
696.5450, 32219.07
697.7010, 37210.94
698.8570, 41374.79
700.0130, 43132.59
701.1680, 41748.38
702.3230, 38000.16
703.4780, 31807.09
704.6330, 25478.86
705.7880, 19990.61
706.9430, 15392.35
708.0970, 11899.09
709.2520, 9272.809
710.4060, 7438.520
711.5600, 5969.225
712.7140, 5062.920
713.8670, 4006.604
715.0210, 3553.279
716.1740, 2926.944
717.3270, 2642.601
718.4800, 2192.247
719.6330, 2022.885
720.7860, 1770.512
721.9380, 1542.129
723.0910, 1250.737
724.2430, 1139.336
725.3950, 1101.926
726.5470, 1121.505
727.6980, 787.0762
728.8500, 1012.637
730.0010, 774.1885
731.1530, 866.7314
732.3040, 681.2637
733.4550, 675.7881
734.6050, 625.3018
735.7560, 654.8076
736.9060, 559.3047
738.0560, 655.0029
739.2060, 407.4814
740.3560, 375.9521
741.5060, 488.2080
742.6560, 319.6309
743.8050, 506.1807
744.9540, 479.9482
746.1030, 493.9463
747.2520, 496.3350
748.4010, 390.7520
749.5500, 296.2139
750.6980, 308.6611
751.8460, 321.2295
752.9950, 346.9814
754.1420, 381.8369
755.2900, 401.1406
756.4380, 408.3125
757.5850, 438.6631
758.7330, 450.4561
759.8800, 450.9033
761.0270, 542.3438
762.1730, 500.7939
763.3200, 516.5146
764.4670, 773.9551
765.6130, 754.4150
766.7590, 857.1572
767.9050, 876.5918
769.0510, 1223.789
770.1960, 1336.690
771.3420, 1759.171
772.4870, 2256.508
773.6320, 2824.981
774.7770, 3499.385
775.9220, 4211.773
777.0670, 5328.689
778.2110, 6075.081
779.3560, 6431.318
780.5000, 6010.984
781.6440, 5152.442
782.7880, 4323.709
783.9320, 3286.160
785.0750, 2319.716
786.2180, 1578.158
787.3620, 1074.595
788.5050, 927.0430
789.6480, 676.4736
790.7900, 500.6680
791.9330, 404.6211
793.0750, 222.0371
794.2170, 363.4492
795.3590, 316.8564
796.5010, 291.2578
797.6430, 64.17676
798.7850, 145.5703
799.9260, 66.23242
801.0670, 139.6172
802.2080, 121.1982
803.3490, 26.57324
804.4900, 51.94336
805.6310, 17.30859
806.7710, 10.92676
807.9110, 7.980469
809.0510, 17.35742
810.1910, 12.68945
811.3310, 1.308594
812.4710, 63.99316
813.6100, 10.27832
814.7490, 21.54395
815.8880, 11.39355
817.0270, 62.07812
818.1660, 36.30859
819.3050, 60.55371
820.4430, 121.7959
821.5820, 6.033203
822.7200, 85.73535
823.8580, 45.44043
824.9950, 0.6132810
826.1330, 164.7773
827.2710, 49.06348
828.4080, 54.93750
829.5450, 22.85156
830.6820, 28.21484
831.8190, 60.27734
832.9560, 26.66406
834.0920, 31.24121
835.2280, 26.59766
836.3650, 71.41211
837.5010, 96.41699
838.6360, 157.4209
839.7720, 9.420898
840.9080, 56.41504
842.0430, 106.4072
843.1780, 142.3945
844.3130, 143.2217
845.4480, 111.3643
846.5830, 124.3447
847.7170, 127.5615
848.8520, 78.29492
849.9860, 156.2666
851.1200, 180.2354
852.2540, 199.7715
853.3870, 182.1641
854.5210, 234.1240
855.6540, 228.7324
856.7880, 267.3682
857.9210, 253.9912
859.0540, 346.9414
860.1860, 379.8906
861.3190, 422.8369
862.4510, 401.7812
863.5840, 383.0439
864.7160, 407.6641
865.8480, 317.6025
866.9790, 234.5371
868.1110, 259.4717
869.2420, 303.4043
870.3740, 234.3340
871.5050, 196.2617
872.6360, 336.1885
873.7660, 126.1123
874.8970, 213.0488
876.0280, 225.9883
877.1580, 73.92578
878.2880, 96.87207
879.4180, 264.8174
880.5480, 327.8008
881.6770, 280.8242
882.8070, 319.8496
883.9360, 306.0723
885.0650, 226.8936
886.1940, 252.9150
887.3230, 258.9395
888.4520, 181.9668
889.5800, 384.0303
890.7090, 226.1240
891.8370, 174.2256
892.9650, 283.3672
894.0930, 449.5146
895.2200, 304.7012
896.3480, 174.8867
897.4750, 168.0713
898.6020, 318.2539
899.7290, 86.45215
900.8560, 212.6494
901.9830, 68.15527
903.1090, 107.0000
904.2360, 74.18652
905.3620, 54.62695
906.4880, 38.52539
907.6140, 79.67773
908.7400, 114.8281
909.8650, 77.97754
910.9900, 244.1426
912.1160, 54.65039
913.2410, 23.52441
914.3660, 152.6982
915.4900, 19.09570
916.6150, 37.09766
917.7390, 12.70703
918.8640, 281.4727
919.9880, 33.34766
921.1120, 92.81055
922.2350, 33.96680
923.3590, 15.87500
924.4820, 16.26562
925.6060, 107.5918
926.7290, 56.03125
927.8520, 66.54492
928.9740, 29.59766
930.0970, 41.65039
931.2190, 165.7227
932.3420, 8.208984
933.4640, 115.8535
934.5860, 68.07031
935.7080, 134.9688
936.8290, 66.99609
937.9510, 107.0430
939.0720, 135.9805
940.1930, 50.01562
941.3140, 197.9141
942.4350, 154.7578
943.5560, 40.90234
944.6760, 117.8105
945.7960, 27.25781
946.9170, 104.3008
948.0370, 293.9277
949.1560, 104.8086
950.2760, 221.7910
951.3960, 178.6914
952.5150, 119.7930
953.6340, 234.8477
954.7530, 139.9512
955.8720, 178.8438
956.9910, 158.8984
958.1090, 239.1934
959.2280, 326.2891
960.3460, 467.0000
961.4640, 338.1016
962.5820, 234.7148
963.6990, 285.9648
964.8170, 577.2363
965.9340, 485.2715
967.0510, 538.3711
968.1690, 570.4277
969.2850, 459.4824
970.4020, 700.5586
971.5190, 653.6621
972.6350, 766.7695
973.7510, 905.8809
974.8670, 1089.832
975.9830, 1313.945
977.0990, 1630.061
978.2150, 1930.176
979.3300, 2690.293
980.4450, 2944.408
981.5600, 3935.527
982.6750, 4562.646
983.7900, 5266.766
984.9050, 6069.887
986.0190, 6191.008
987.1340, 5792.131
988.2480, 5044.254
989.3620, 4258.379
990.4750, 3253.510
991.5890, 2677.641
992.7020, 2130.773
993.8160, 2033.906
994.9290, 1718.041
996.0420, 1352.176
997.1550, 1375.312
998.2670, 1300.449
999.3800, 1289.588
1000.492, 1329.039
1001.604, 1154.867
1002.716, 1261.010
1003.828, 1274.152
1004.940, 899.2949
1006.051, 849.4395
1007.163, 837.5859
1008.274, 1052.734
1009.385, 1068.943
1010.496, 979.0918
1011.606, 871.2422
1012.717, 1101.393
1013.827, 1239.648
1014.937, 1149.803
1016.047, 1491.955
1017.157, 1200.109
1018.267, 1610.262
1019.377, 1878.418
1020.486, 2176.574
1021.595, 2423.729
1022.704, 2823.664
1023.813, 2826.602
1024.922, 3635.865
1026.030, 4046.961
1027.139, 4450.117
1028.247, 5443.250
1029.355, 6376.406
1030.463, 7549.561
1031.571, 9507.715
1032.678, 11495.93
1033.786, 14141.09
1034.893, 17483.23
1036.000, 20591.10
1037.107, 23762.56
1038.214, 26331.71
1039.321, 27690.42
1040.427, 27320.56
1041.533, 25235.71
1042.639, 21838.85
1043.745, 17821.99
1044.851, 14008.14
1045.957, 10889.84
1047.062, 8636.977
1048.168, 6851.117
1049.273, 5539.043
1050.378, 4696.180
1051.482, 3986.500
1052.587, 2950.637
1053.692, 2795.660
1054.796, 2364.793
1055.900, 1917.924
1057.004, 1981.043
1058.108, 1689.176
1059.212, 1429.535
1060.315, 1542.568
1061.418, 1212.697
1062.522, 1148.824
1063.625, 1060.631
1064.728, 947.7598
1065.830, 985.3691
1066.933, 858.2109
1068.035, 958.0684
1069.137, 919.1934
1070.239, 769.1523
1071.341, 841.2793
1072.443, 700.4062
1073.545, 853.5410
1074.646, 989.6660
1075.747, 703.4004
1076.848, 831.5332
1077.949, 882.8184
1079.050, 941.2715
1080.150, 983.3770
1081.251, 982.2754
1082.351, 981.0117
1083.451, 905.1602
1084.551, 800.3086
1085.651, 621.1973
1086.750, 619.6035
1087.850, 310.7480
1088.949, 401.8926
1090.048, 234.0371
1091.147, 281.2031
1092.246, 223.3691
1093.345, 334.5352
1094.443, 339.7012
1095.541, 162.8789
1096.639, 259.0742
1097.737, 398.2793
1098.835, 145.4805
1099.933, 262.6797
1101.030, 284.8906
1102.128, 102.0977
1103.225, 159.3125
1104.322, 220.5293
1105.419, 306.7734
1106.515, 253.9844
1107.612, 208.1973
1108.708, 236.4062
1109.804, 224.6152
1110.900, 192.8223
1111.996, 215.0273
1113.092, 36.23438
1114.187, 357.4355
1115.283, 183.6348
1116.378, 395.8359
1117.473, 473.0332
1118.568, 463.2266
1119.662, 655.4238
1120.757, 636.6172
1121.851, 891.7012
1122.946, 785.1133
1124.040, 706.2930
1125.134, 675.2695
1126.227, 569.2363
1127.321, 474.6406
1128.414, 404.8242
1129.508, 358.0078
1130.601, 280.1875
1131.693, 127.3672
1132.786, 142.5469
1133.879, 66.72461
1134.971, 350.9023
1136.064, 262.7305
1137.156, 253.2539
1138.248, 192.4277
1139.339, 231.5996
1140.431, 8.230469
1141.522, 34.92773
1142.614, 90.08594
1143.705, 233.2402
1144.796, 9.402344
1145.887, 218.5586
1146.977, 260.7168
1148.068, 94.87109
1149.158, 55.02344
1150.248, 70.17773
1151.338, 29.32812
1152.428, 16.34961
1153.518, 29.62891
1154.607, 32.22461
1155.696, 25.09766
1156.785, 70.20703
1157.874, 23.06250
1158.963, 86.87695
1160.052, 86.12891
1161.141, 146.1348
1162.229, 197.1387
1163.317, 40.85938
1164.405, 137.1152
1165.493, 383.0918
1166.581, 19.06641
1167.668, 108.9434
1168.756, 205.9863
1169.843, 192.9160
1170.930, 263.8594
1172.017, 174.8027
1173.103, 152.7480
1174.190, 98.68945
1175.276, 38.63281
1176.363, 60.76367
1177.449, 48.12109
1178.535, 110.4883
1179.620, 89.44531
1180.706, 136.4082
1181.791, 154.3730
1182.877, 104.3398
1183.962, 143.3066
1185.047, 227.2852
1186.131, 137.2617
1187.216, 205.2383
1188.300, 125.2227
1189.385, 110.2051
1190.469, 17.78125
1191.553, 173.2324
1192.637, 67.25000
1193.720, 69.73438
1194.804, 111.2402
1195.887, 111.2148
1196.970, 54.80664
1198.053, 59.14062
1199.136, 106.1074
1200.219, 139.9297
1201.301, 189.9805
1202.383, 169.8867
1203.465, 92.20312
1204.547, 344.6523
1205.629, 22.49023
1206.711, 148.3516
1207.792, 222.8047
1208.874, 134.9180
1209.955, 157.6484
1211.036, 204.3789
1212.117, 0.8867190
1213.198, 99.84180
1214.278, 146.5723
1215.359, 161.3027
1216.439, 39.03711
1217.519, 127.7676
1218.599, 73.50195
1219.678, 62.64844
1220.758, 71.97461
1221.837, 54.71289
1222.917, 46.18164
1223.996, 33.79883
1225.075, 23.93164
1226.153, 22.67383
1227.232, 24.41797
1228.310, 71.16016
1229.389, 86.90625
1230.467, 269.6523
1231.545, 68.40234
1232.622, 72.15039
1233.700, 350.9023
1234.777, 19.34766
1235.855, 90.39453
1236.932, 243.1387
1238.009, 198.8867
1239.086, 135.6348
1240.162, 156.3828
1241.239, 188.1328
1242.315, 151.8867
1243.391, 153.6406
1244.467, 51.39844
1245.543, 71.16602
1246.619, 70.93359
1247.694, 86.70508
1248.769, 161.4766
1249.844, 109.7734
1250.919, 19.96875
1251.994, 84.80078
1253.069, 64.57227
1254.144, 141.3477
1255.218, 124.1270
1256.292, 22.90625
1257.366, 152.6895
1258.440, 41.47461
1259.514, 52.26367
1260.587, 218.0527
1261.661, 81.84766
1262.734, 272.6426
1263.807, 106.4434
1264.880, 204.2480
1265.952, 147.0586
1267.025, 195.8691
1268.097, 363.6836
1269.170, 37.50000
1270.242, 351.2617
1271.314, 17.08594
1272.385, 223.9141
1273.457, 352.9160
1274.528, 207.6523
1275.600, 205.5293
1276.671, 214.4062
1277.742, 135.0176
1278.812, 135.1758
1279.883, 75.06641
1280.954, 108.9609
1282.024, 116.8594
1283.094, 279.7637
1284.164, 233.1133
1285.234, 42.91406
1286.303, 160.8945
1287.373, 348.8164
1288.442, 116.7676
1289.511, 255.7148
1290.580, 112.6680
1291.649, 116.6270
1292.718, 278.5273
1293.786, 157.4961
1294.855, 134.4746
1295.923, 123.4590
1296.991, 128.1367
1298.059, 251.1348
1299.126, 212.1367
1300.194, 140.1465
1301.261, 333.1641
1302.328, 316.1855
1303.395, 282.2148
1304.462, 297.2500
1305.529, 248.4102
1306.596, 298.8926
1307.662, 229.3965
1308.728, 315.4551
1309.794, 439.5215
1310.860, 285.5938
1311.926, 353.6719
1312.991, 283.7539
1314.057, 347.8438
1315.122, 219.9395
1316.187, 223.0391
1317.252, 308.1465
1318.317, 443.2617
1319.381, 276.9512
1320.446, 365.0762
1321.510, 455.2090
1322.574, 368.6680
1323.638, 157.8066
1324.702, 199.9531
1325.766, 236.3867
1326.829, 276.5449
1327.892, 317.7051
1328.956, 259.8438
1330.019, 245.0195
1331.081, 106.2012
1332.144, 134.3848
1333.206, 112.9746
1334.269, 95.18359
1335.331, 151.3965
1336.393, 244.4648
1337.455, 288.6934
1338.516, 332.9336
1339.578, 197.1797
1340.639, 348.1348
1341.701, 205.4004
1342.762, 170.6738
1343.822, 331.9590
1344.883, 162.2539
1345.944, 211.5586
1347.004, 216.8711
1348.064, 272.1914
1349.124, 259.5254
1350.184, 229.8672
1351.244, 225.3379
1352.304, 188.5820
1353.363, 167.9531
1354.422, 171.3379
1355.481, 161.7305
1356.540, 158.1328
1357.599, 200.5469
1358.657, 296.9727
1359.716, 75.40820
1360.774, 167.8555
1361.832, 60.30664
1362.890, 212.7363
1363.948, 179.2070
1365.006, 163.6914
1366.063, 35.18555
1367.120, 199.6895
1368.178, 240.2070
1369.234, 136.7324
1370.291, 143.2715
1371.348, 224.8203
1372.404, 293.2441
1373.461, 236.8164
1374.517, 114.4004
1375.573, 164.9961
1376.629, 185.6035
1377.684, 236.2207
1378.740, 300.9590
1379.795, 223.6016
1380.850, 344.2559
1381.905, 299.9805
1382.960, 224.6621
1384.015, 43.35547
1385.070, 224.0605
1386.124, 211.7773
1387.178, 117.5098
1388.232, 186.2539
1389.286, 185.0137
1390.340, 81.06836
1391.393, 117.7461
1392.447, 223.6582
1393.500, 60.47070
1394.553, 96.30078
1395.606, 35.14453
1396.659, 159.0039
1397.711, 99.88086
1398.764, 98.77734
1399.816, 58.31445
1400.868, 163.8848
1401.920, 146.6816
1402.972, 149.6367
1404.023, 220.6035
1405.075, 242.5898
1406.126, 336.5879
1407.177, 34.60742
1408.228, 29.64062
1409.279, 133.6934
1410.330, 240.7363
1411.380, 167.8066
1412.431, 207.9062
1413.481, 33.04492
1414.531, 128.1992
1415.580, 89.52734
1416.630, 211.7461
1417.680, 69.98242
1418.729, 178.2383
1419.778, 279.5215
1420.827, 191.8223
1421.876, 217.2637
1422.925, 252.6035
1423.973, 254.1992
1425.022, 137.2207
1426.070, 270.4512
1427.118, 330.6953
1428.166, 204.9473
1429.214, 204.2129
1430.261, 433.4863
1431.309, 345.7676
1432.356, 411.9492
1433.403, 411.1230
1434.450, 496.2949
1435.497, 282.5664
1436.543, 639.7129
1437.590, 741.8555
1438.636, 479.9922
1439.682, 591.1191
1440.728, 581.2422
1441.774, 702.3906
1442.819, 684.3711
1443.865, 636.4980
1444.910, 848.6309
1445.955, 1087.496
1447.000, 1003.098
1448.045, 936.0898
1449.090, 739.1172
1450.134, 913.1953
1451.178, 1074.328
1452.223, 1149.516
1453.267, 1176.516
1454.310, 1203.219
1455.354, 1085.508
1456.398, 1062.969
1457.441, 934.4551
1458.484, 665.9629
1459.527, 859.4922
1460.570, 674.0430
1461.613, 865.6133
1462.655, 672.2070
1463.698, 723.8184
1464.740, 708.4570
1465.782, 570.1152
1466.824, 299.7949
1467.866, 489.5059
1468.907, 582.2461
1469.948, 242.0098
1470.990, 482.7969
1472.031, 348.6074
1473.072, 457.4219
1474.112, 286.2578
1475.153, 479.1230
1476.194, 309.0215
1477.234, 488.9434
1478.274, 491.8906
1479.314, 241.8633
1480.354, 306.8613
1481.393, 334.8828
1482.433, 174.9297
1483.472, 398.0000
1484.511, 351.0977
1485.550, 166.2207
1486.589, 134.6426
1487.628, 311.6934
1488.666, 163.7676
1489.704, 329.8652
1490.743, 106.9844
1491.781, 85.12891
1492.819, 165.9395
1493.856, 61.32617
1494.894, 215.6348
1495.931, 111.8242
1496.968, 44.97070
1498.005, 119.2539
1499.042, 211.5000
1500.079, 215.7734
1501.115, 44.06641
1502.152, 43.38672
1503.188, 14.73438
1504.224, 181.1113
1505.260, 135.5195
1506.296, 1.962891
1507.331, 419.4336
1508.367, 145.9336
1509.402, 193.4805
1510.437, 204.0742
1511.472, 83.71875
1512.507, 217.4062
1513.541, 120.1348
1514.576, 4.091797
1515.610, 163.7148
1516.644, 395.5664
1517.678, 345.4570
1518.712, 283.3887
1519.746, 289.3652
1520.779, 298.3828
1521.813, 278.7812
1522.846, 162.5430
1523.879, 255.6895
1524.912, 11.12109
1525.944, 98.88281
1526.977, 207.3965
1528.009, 134.7227
1529.041, 273.1191
1530.073, 161.5938
1531.105, 289.1250
1532.137, 216.7168
1533.168, 208.3691
1534.200, 99.82422
1535.231, 298.4316
1536.262, 152.1035
1537.293, 204.8418
1538.324, 223.6484
1539.354, 25.70117
1540.385, 235.2383
1541.415, 117.2520
1542.445, 194.3379
1543.475, 107.2207
1544.505, 298.4082
1545.534, 86.66602
1546.564, 169.9980
1547.593, 255.4102
1548.622, 166.6543
1549.651, 151.0156
1550.680, 256.2324
1551.708, 378.2598
1552.737, 263.2461
1553.765, 291.1816
1554.793, 422.8281
1555.821, 115.3184
1556.849, 299.2285
1557.877, 427.3320
1558.904, 45.06250
1559.932, 183.5957
1560.959, 231.3438
1561.986, 254.1953
1563.013, 204.8301
1564.039, 88.09180
1565.066, 61.16406
1566.092, 2.037109
1567.119, 193.5137
1568.145, 144.8828
1569.170, 142.8613
1570.196, 0.0000000E+00
##END=



