##NAMES=Magnesiotaaffeite-6N3S
##RRUFFID=X070005
##IDEAL CHEMISTRY=Mg_2_BeAl_6_O_12_
##LOCALITY=Tunduru, Tanzania
##OWNER=www.multicolour.com
##SOURCE=www.multicolour.com
##DESCRIPTION=Pale lavendar cut gemstone, 0.65 cts, formerly known as musgravite-18R
##STATUS=The identification of this mineral has been confirmed by single-crystal X-ray diffraction.
##URL=rruff.info/X070005
164.0825, 0.0000000E+00
164.5646, 0.1035160
165.0467, 14.87109
165.5288, 30.35742
166.0110, 40.75586
166.4931, 24.41016
166.9752, 9.900391
167.4573, 1.986328
167.9394, 3.216797
168.4215, 15.98438
168.9037, 84.30859
169.3858, 151.8418
169.8679, 188.4277
170.3500, 191.4395
170.8321, 177.7383
171.3142, 137.4336
171.7964, 90.64258
172.2785, 67.93945
172.7606, 97.46289
173.2427, 139.5645
173.7248, 155.4102
174.2069, 133.8984
174.6891, 102.7383
175.1712, 84.93164
175.6533, 80.60938
176.1354, 76.77539
176.6175, 73.21875
177.0996, 76.91016
177.5818, 91.53320
178.0639, 128.1660
178.5460, 171.6074
179.0281, 175.8945
179.5102, 125.7031
179.9923, 78.80859
180.4745, 77.02539
180.9566, 110.8848
181.4387, 154.5742
181.9208, 216.4883
182.4029, 276.4492
182.8850, 288.2637
183.3672, 244.0176
183.8493, 189.3477
184.3314, 194.8828
184.8135, 248.6172
185.2956, 280.1973
185.7777, 229.6914
186.2599, 129.8301
186.7420, 79.50000
187.2241, 105.5508
187.7062, 162.7129
188.1883, 172.5410
188.6705, 143.2832
189.1526, 117.5488
189.6347, 102.9219
190.1168, 98.25977
190.5989, 107.0449
191.0810, 134.6270
191.5632, 172.3789
192.0453, 163.0352
192.5274, 101.2285
193.0095, 31.68750
193.4916, 6.923828
193.9737, 24.84180
194.4559, 43.51562
194.9380, 49.66211
195.4201, 46.00000
195.9022, 52.52344
196.3843, 71.48828
196.8664, 95.20117
197.3486, 110.4355
197.8307, 116.1602
198.3128, 122.3320
198.7949, 133.4082
199.2770, 149.1992
199.7591, 167.0508
200.2413, 187.9648
200.7234, 208.4707
201.2055, 216.5781
201.6876, 207.8340
202.1697, 203.4258
202.6518, 229.8086
203.1340, 293.5977
203.6161, 315.1191
204.0982, 262.3066
204.5803, 155.7012
205.0624, 118.5840
205.5445, 170.8047
206.0267, 244.8945
206.5088, 272.4062
206.9909, 243.9668
207.4730, 216.8223
207.9551, 208.5879
208.4372, 219.7383
208.9194, 219.6465
209.4015, 207.7480
209.8836, 186.5273
210.3657, 158.1074
210.8478, 120.9258
211.3299, 83.68555
211.8121, 50.03320
212.2942, 20.98047
212.7763, 7.595703
213.2584, 38.04688
213.7405, 65.88867
214.2226, 79.68359
214.7048, 75.33008
215.1869, 66.26562
215.6690, 61.10156
216.1511, 64.22461
216.6332, 57.34961
217.1153, 37.03516
217.5975, 6.005859
218.0796, 22.00781
218.5617, 46.39648
219.0438, 67.73633
219.5259, 84.81641
220.0080, 94.05078
220.4902, 108.5000
220.9723, 137.6992
221.4544, 181.1387
221.9365, 188.2305
222.4186, 130.4688
222.9007, 60.77344
223.3829, 41.85547
223.8650, 99.65039
224.3471, 154.3828
224.8292, 185.9102
225.3113, 190.2676
225.7934, 196.4492
226.2756, 202.0664
226.7577, 212.2441
227.2398, 237.1602
227.7219, 288.1289
228.2040, 334.2656
228.6861, 361.3633
229.1683, 354.5000
229.6504, 370.0586
230.1325, 419.8398
230.6146, 487.8809
231.0967, 531.7383
231.5789, 527.4512
232.0610, 532.6641
232.5431, 577.3320
233.0252, 675.8320
233.5073, 783.9707
233.9894, 915.1934
234.4716, 1057.354
234.9537, 1146.295
235.4358, 1135.871
235.9179, 1129.664
236.4000, 1202.055
236.8821, 1392.391
237.3643, 1581.570
237.8464, 1751.096
238.3285, 1900.549
238.8106, 2068.004
239.2927, 2273.639
239.7748, 2476.887
240.2570, 2643.012
240.7391, 2795.055
241.2212, 2869.479
241.7033, 2858.908
242.1854, 2765.203
242.6675, 2555.385
243.1497, 2160.342
243.6318, 1703.168
244.1139, 1341.820
244.5960, 1106.402
245.0781, 916.7969
245.5602, 747.3496
246.0424, 583.0840
246.5245, 499.8672
247.0066, 538.9941
247.4887, 636.3203
247.9708, 673.9609
248.4529, 626.9277
248.9351, 560.1445
249.4172, 493.7891
249.8993, 416.7461
250.3814, 366.0996
250.8635, 350.8145
251.3456, 359.3809
251.8278, 360.4023
252.3099, 345.2969
252.7920, 333.9668
253.2741, 340.5957
253.7562, 384.4688
254.2383, 399.9180
254.7205, 368.7363
255.2026, 304.3633
255.6847, 271.7461
256.1668, 280.1465
256.6489, 307.0898
257.1310, 340.1914
257.6132, 384.3496
258.0953, 422.0859
258.5774, 443.5488
259.0595, 452.9414
259.5416, 495.9473
260.0237, 596.9062
260.5059, 698.7168
260.9880, 741.9922
261.4701, 687.1934
261.9522, 674.9199
262.4343, 742.9844
262.9164, 890.3164
263.3986, 1018.033
263.8807, 1122.195
264.3628, 1213.570
264.8449, 1308.713
265.3270, 1424.197
265.8091, 1499.107
266.2913, 1510.227
266.7734, 1452.828
267.2555, 1398.289
267.7376, 1352.336
268.2197, 1301.094
268.7018, 1221.377
269.1840, 1103.586
269.6661, 986.0293
270.1482, 886.2891
270.6303, 808.4316
271.1124, 699.7695
271.5945, 537.0000
272.0767, 373.8438
272.5588, 308.8184
273.0409, 369.4180
273.5230, 440.2852
274.0051, 476.6836
274.4872, 475.8770
274.9694, 465.6152
275.4515, 447.9707
275.9336, 419.6895
276.4157, 367.1562
276.8978, 280.6367
277.3799, 208.9297
277.8621, 175.1211
278.3442, 180.4551
278.8263, 214.4434
279.3084, 286.0137
279.7905, 374.1719
280.2726, 434.2227
280.7548, 465.6094
281.2369, 470.3770
281.7190, 442.1660
282.2011, 382.0117
282.6832, 321.6777
283.1653, 264.9746
283.6475, 216.0723
284.1296, 189.1016
284.6117, 186.3145
285.0938, 192.6973
285.5759, 202.4531
286.0580, 213.4316
286.5402, 216.3867
287.0223, 209.8340
287.5044, 195.5840
287.9865, 174.1992
288.4686, 147.1914
288.9507, 131.0020
289.4329, 135.5195
289.9150, 152.8965
290.3971, 162.8770
290.8792, 164.3262
291.3614, 159.4961
291.8435, 154.0410
292.3256, 148.2051
292.8077, 140.8711
293.2898, 118.6484
293.7719, 86.79102
294.2541, 78.57422
294.7362, 110.3770
295.2183, 165.7520
295.7004, 213.3535
296.1825, 253.0625
296.6646, 288.2344
297.1468, 319.4141
297.6289, 350.4941
298.1110, 391.3398
298.5931, 450.2812
299.0752, 510.7812
299.5573, 540.4277
300.0395, 543.1309
300.5216, 556.4863
301.0037, 618.1504
301.4858, 711.5469
301.9679, 801.4883
302.4500, 877.0469
302.9322, 940.2422
303.4143, 1004.307
303.8964, 1070.791
304.3785, 1108.350
304.8606, 1052.734
305.3427, 950.8008
305.8249, 893.1523
306.3070, 962.5801
306.7891, 1070.988
307.2712, 1109.113
307.7533, 1074.650
308.2354, 1045.850
308.7176, 1079.781
309.1997, 1159.559
309.6818, 1256.658
310.1639, 1374.576
310.6460, 1495.891
311.1281, 1598.006
311.6103, 1680.105
312.0924, 1774.072
312.5745, 1916.086
313.0566, 2080.893
313.5387, 2229.455
314.0208, 2387.639
314.5030, 2495.809
314.9851, 2505.896
315.4672, 2410.764
315.9493, 2281.982
316.4314, 2146.072
316.9135, 2001.605
317.3957, 1844.502
317.8778, 1671.211
318.3599, 1488.410
318.8420, 1285.533
319.3241, 1056.297
319.8062, 864.4805
320.2884, 742.0586
320.7705, 664.4492
321.2526, 599.6445
321.7347, 525.9688
322.2168, 472.6562
322.6989, 459.7363
323.1811, 497.9160
323.6632, 520.4785
324.1453, 503.7637
324.6274, 466.7812
325.1095, 432.7910
325.5916, 400.5527
326.0738, 377.6582
326.5559, 370.1270
327.0380, 383.8105
327.5201, 392.3711
328.0022, 404.7812
328.4843, 408.8145
328.9665, 389.4883
329.4486, 308.5801
329.9307, 242.6738
330.4128, 211.7891
330.8949, 226.5000
331.3770, 233.5195
331.8592, 228.2188
332.3413, 217.1113
332.8234, 206.3633
333.3055, 179.5703
333.7876, 175.6660
334.2697, 213.4746
334.7519, 306.4824
335.2340, 358.2441
335.7161, 342.4062
336.1982, 166.1992
336.6803, 264.0215
337.1624, 319.7207
337.6446, 333.4609
338.1267, 296.6543
338.6088, 235.5176
339.0909, 129.3574
339.5730, 16.15234
340.0551, 106.6133
340.5373, 102.0215
341.0194, 119.0352
341.5015, 118.6953
341.9836, 80.29688
342.4657, 7.617188
342.9478, 32.94531
343.4300, 35.45898
343.9121, 19.05078
344.3942, 3.767578
344.8763, 34.52539
345.3584, 40.13477
345.8405, 11.00000
346.3227, 98.45117
346.8048, 110.4824
347.2869, 36.19531
347.7690, 54.68555
348.2511, 88.41211
348.7332, 70.88672
349.2154, 45.88281
349.6975, 17.52930
350.1796, 5.953125
350.6617, 1.478516
351.1438, 41.08789
351.6259, 84.46875
352.1081, 112.4121
352.5902, 124.3301
353.0723, 117.2520
353.5544, 80.73438
354.0365, 30.57812
354.5186, 20.34375
355.0008, 71.25195
355.4829, 103.2637
355.9650, 78.70312
356.4471, 30.03711
356.9292, 8.144531
357.4113, 57.95898
357.8935, 117.8672
358.3756, 136.0000
358.8577, 114.5898
359.3398, 81.12109
359.8219, 36.86719
360.3040, 5.667969
360.7862, 33.65234
361.2683, 23.43555
361.7504, 16.47852
362.2325, 31.01367
362.7146, 66.02344
363.1967, 114.3574
363.6789, 178.0840
364.1610, 250.4688
364.6431, 326.4902
365.1252, 432.4121
365.6073, 510.4766
366.0894, 531.5469
366.5716, 505.6289
367.0537, 482.8125
367.5358, 472.0859
368.0179, 467.1172
368.5000, 464.6387
368.9821, 475.7832
369.4643, 476.0762
369.9464, 450.9785
370.4285, 411.2832
370.9106, 398.4277
371.3927, 440.3633
371.8748, 485.1523
372.3570, 511.4023
372.8391, 503.2930
373.3212, 503.1465
373.8033, 517.2676
374.2855, 542.0430
374.7676, 566.2793
375.2497, 589.4355
375.7318, 614.1953
376.2139, 639.7773
376.6960, 661.7910
377.1782, 705.3223
377.6603, 783.2031
378.1424, 869.9375
378.6245, 918.4082
379.1066, 927.9395
379.5887, 898.7676
380.0709, 811.4180
380.5530, 664.0840
381.0351, 556.0645
381.5172, 490.9590
381.9993, 453.3594
382.4814, 381.2891
382.9636, 437.1504
383.4457, 459.0898
383.9278, 448.9414
384.4099, 310.5430
384.8920, 337.7578
385.3741, 298.6113
385.8563, 256.7520
386.3384, 307.2988
386.8205, 187.5840
387.3026, 236.6875
387.7847, 218.4102
388.2668, 230.9785
388.7490, 176.7773
389.2311, 143.2090
389.7132, 176.4531
390.1953, 139.3164
390.6774, 211.7051
391.1595, 286.9766
391.6417, 366.8320
392.1238, 434.9277
392.6059, 464.9746
393.0880, 462.9180
393.5701, 482.1602
394.0522, 560.1914
394.5344, 667.7031
395.0165, 778.2715
395.4986, 881.3184
395.9807, 988.5781
396.4628, 1090.814
396.9449, 1194.502
397.4271, 1331.266
397.9092, 1508.562
398.3913, 1727.402
398.8734, 1990.393
399.3555, 2321.830
399.8376, 2664.971
400.3198, 2997.580
400.8019, 3332.855
401.2840, 3723.055
401.7661, 4243.355
402.2482, 4748.006
402.7303, 5180.529
403.2125, 5519.418
403.6946, 5833.137
404.1767, 6137.861
404.6588, 6414.051
405.1409, 6618.334
405.6230, 6755.223
406.1052, 6808.396
406.5873, 6745.303
407.0694, 6546.189
407.5515, 6403.967
408.0336, 6293.619
408.5157, 6282.475
408.9979, 6466.438
409.4800, 6848.361
409.9621, 7356.803
410.4442, 8005.541
410.9263, 8761.539
411.4084, 9514.754
411.8906, 10261.31
412.3727, 10984.92
412.8548, 11744.90
413.3369, 12486.51
413.8190, 12991.04
414.3011, 13261.97
414.7833, 13202.34
415.2654, 12588.94
415.7475, 11452.86
416.2296, 10080.87
416.7117, 8467.365
417.1938, 6816.562
417.6760, 5394.426
418.1581, 4289.830
418.6402, 3393.785
419.1223, 2645.561
419.6044, 2041.869
420.0865, 1559.078
420.5687, 1242.557
421.0508, 1012.887
421.5329, 820.2988
422.0150, 654.9023
422.4971, 523.1562
422.9792, 445.3203
423.4614, 400.8652
423.9435, 346.3926
424.4256, 243.7031
424.9077, 154.6621
425.3898, 106.3555
425.8719, 119.5020
426.3541, 116.9297
426.8362, 76.85742
427.3183, 28.41602
427.8004, 7.697266
428.2825, 47.55078
428.7646, 65.23828
429.2468, 27.18945
429.7289, 70.61914
430.2110, 98.24609
430.6931, 28.62109
431.1752, 70.40430
431.6573, 134.8906
432.1395, 157.0176
432.6216, 184.9180
433.1037, 225.7773
433.5858, 279.1035
434.0679, 346.0371
434.5500, 427.1465
435.0322, 515.9355
435.5143, 606.4434
435.9964, 699.5254
436.4785, 798.2695
436.9606, 902.7637
437.4427, 1013.111
437.9249, 1128.842
438.4070, 1251.398
438.8891, 1379.543
439.3712, 1500.012
439.8533, 1631.447
440.3354, 1803.838
440.8176, 2023.660
441.2997, 2262.771
441.7818, 2476.865
442.2639, 2698.188
442.7460, 2980.746
443.2281, 3369.504
443.7103, 3807.119
444.1924, 4277.449
444.6745, 4780.527
445.1566, 5263.865
445.6387, 5744.453
446.1208, 6181.104
446.6030, 6533.039
447.0851, 6870.734
447.5672, 7037.342
448.0493, 7008.623
448.5314, 6783.174
449.0135, 6367.412
449.4957, 5617.979
449.9778, 4810.857
450.4599, 4072.412
450.9420, 3387.084
451.4241, 2815.113
451.9063, 2362.973
452.3884, 2017.225
452.8705, 1758.977
453.3526, 1598.408
453.8347, 1490.986
454.3168, 1427.967
454.7990, 1410.225
455.2811, 1403.979
455.7632, 1412.074
456.2453, 1422.895
456.7274, 1429.162
457.2096, 1428.949
457.6917, 1401.842
458.1738, 1338.129
458.6559, 1243.586
459.1380, 1122.350
459.6201, 976.6367
460.1023, 822.5215
460.5844, 660.9609
461.0665, 503.4570
461.5486, 374.1445
462.0307, 286.3477
462.5128, 215.0664
462.9950, 136.5762
463.4771, 56.18555
463.9592, 4.439453
464.4413, 24.11914
464.9234, 28.64844
465.4055, 35.56641
465.8877, 50.15625
466.3698, 61.02930
466.8519, 66.54492
467.3340, 66.24609
467.8161, 59.03516
468.2982, 45.07422
468.7804, 23.59375
469.2625, 8.750000
469.7446, 53.81250
470.2267, 95.27930
470.7088, 136.8281
471.1909, 172.4746
471.6731, 196.2090
472.1552, 201.8672
472.6373, 211.3477
473.1194, 221.7891
473.6015, 239.9766
474.0836, 296.8906
474.5658, 398.2402
475.0479, 511.6426
475.5300, 616.9453
476.0121, 714.8516
476.4942, 811.5527
476.9763, 902.3340
477.4585, 1004.922
477.9406, 1144.004
478.4227, 1317.906
478.9048, 1514.752
479.3869, 1725.537
479.8690, 1958.838
480.3512, 2232.715
480.8333, 2548.254
481.3154, 2877.510
481.7975, 3216.562
482.2796, 3552.891
482.7617, 3871.096
483.2439, 4160.975
483.7260, 4440.607
484.2081, 4746.486
484.6902, 5060.061
485.1723, 5292.975
485.6544, 5374.047
486.1366, 5397.703
486.6187, 5409.682
487.1008, 5394.592
487.5829, 5402.133
488.0650, 5392.045
488.5471, 5420.414
489.0293, 5570.570
489.5114, 5837.225
489.9935, 6232.412
490.4756, 6782.727
490.9577, 7480.021
491.4398, 8228.740
491.9220, 9050.713
492.4041, 9876.854
492.8862, 10689.27
493.3683, 11493.35
493.8504, 12146.65
494.3326, 12664.88
494.8147, 12977.95
495.2968, 12970.00
495.7789, 12644.02
496.2610, 12018.33
496.7431, 10991.79
497.2253, 9701.910
497.7074, 8312.840
498.1895, 6801.502
498.6716, 5402.182
499.1537, 4248.605
499.6358, 3326.754
500.1180, 2586.527
500.6001, 2066.613
501.0822, 1679.746
501.5643, 1417.117
502.0464, 1276.523
502.5285, 1153.387
503.0107, 1024.344
503.4928, 896.2461
503.9749, 772.2500
504.4570, 634.1172
504.9391, 524.9961
505.4212, 459.3438
505.9034, 424.4746
506.3855, 380.9863
506.8676, 318.6758
507.3497, 266.9102
507.8318, 241.9258
508.3139, 248.6523
508.7961, 242.1289
509.2782, 219.5117
509.7603, 191.2695
510.2424, 169.1836
510.7245, 153.4531
511.2066, 140.0488
511.6888, 125.0938
512.1709, 113.2695
512.6530, 118.9531
513.1351, 140.2129
513.6172, 158.1562
514.0994, 148.8066
514.5815, 129.8125
515.0636, 127.9824
515.5457, 150.6562
516.0278, 180.2754
516.5099, 213.7207
516.9921, 244.5703
517.4742, 261.3809
517.9563, 249.3574
518.4384, 232.6211
518.9205, 216.8945
519.4026, 202.3613
519.8848, 207.5234
520.3669, 267.9062
520.8490, 330.3438
521.3311, 354.7930
521.8132, 295.0469
522.2953, 273.1270
522.7775, 300.2520
523.2596, 369.5723
523.7417, 465.1484
524.2238, 595.9258
524.7059, 726.2129
525.1880, 843.8379
525.6702, 947.3320
526.1523, 1026.348
526.6344, 1075.596
527.1165, 1116.615
527.5986, 1182.055
528.0807, 1261.846
528.5629, 1316.406
529.0450, 1337.660
529.5271, 1322.910
530.0092, 1261.844
530.4913, 1159.443
530.9734, 1035.812
531.4556, 871.8730
531.9377, 712.8418
532.4198, 603.9805
532.9019, 568.5957
533.3840, 533.8906
533.8661, 465.6094
534.3483, 383.6191
534.8304, 315.1953
535.3125, 259.4805
535.7946, 223.3027
536.2767, 216.1914
536.7589, 235.8164
537.2410, 238.8594
537.7231, 204.8594
538.2052, 179.2441
538.6873, 195.9199
539.1694, 267.5703
539.6516, 319.1660
540.1337, 343.8965
540.6158, 349.2754
541.0979, 350.9590
541.5800, 348.7871
542.0621, 327.8145
542.5443, 275.3770
543.0264, 202.2070
543.5085, 121.8184
543.9906, 34.76758
544.4727, 26.66406
544.9548, 15.90820
545.4370, 30.04297
545.9191, 61.62500
546.4012, 68.53906
546.8833, 56.50000
547.3654, 10.55078
547.8475, 52.09961
548.3297, 93.49609
548.8118, 90.86914
549.2939, 76.53906
549.7760, 63.52734
550.2581, 54.40625
550.7402, 40.57422
551.2224, 19.92383
551.7045, 2.060547
552.1866, 24.94141
552.6687, 60.71875
553.1508, 59.15430
553.6329, 3.337891
554.1151, 92.87305
554.5972, 117.8945
555.0793, 72.11133
555.5614, 25.97852
556.0435, 15.75391
556.5256, 33.23047
557.0078, 54.02148
557.4899, 78.36914
557.9720, 93.07031
558.4541, 76.48633
558.9362, 43.14062
559.4183, 19.96680
559.9005, 20.71094
560.3826, 24.02930
560.8647, 18.68164
561.3468, 4.521484
561.8289, 18.26367
562.3110, 63.91211
562.7932, 106.1191
563.2753, 125.8809
563.7574, 109.4277
564.2395, 124.1484
564.7216, 187.2520
565.2037, 273.1699
565.6859, 356.8516
566.1680, 431.2266
566.6501, 523.2383
567.1322, 639.5547
567.6143, 772.2617
568.0964, 902.2051
568.5786, 1029.236
569.0607, 1141.531
569.5428, 1210.430
570.0249, 1254.787
570.5070, 1350.244
570.9891, 1500.369
571.4713, 1666.816
571.9534, 1802.449
572.4355, 1929.588
572.9176, 2087.977
573.3997, 2317.270
573.8818, 2543.537
574.3640, 2701.748
574.8461, 2818.039
575.3282, 2970.949
575.8103, 3244.301
576.2924, 3510.973
576.7745, 3719.619
577.2567, 3855.562
577.7388, 3965.980
578.2209, 4067.143
578.7030, 4133.521
579.1851, 4146.115
579.6672, 4106.605
580.1494, 4005.254
580.6315, 3833.480
581.1136, 3603.979
581.5957, 3346.404
582.0778, 3058.293
582.5599, 2772.666
583.0421, 2494.102
583.5242, 2229.229
584.0063, 1993.902
584.4884, 1787.451
584.9705, 1605.557
585.4526, 1450.688
585.9348, 1311.719
586.4169, 1170.623
586.8990, 1010.502
587.3811, 867.8516
587.8632, 766.3379
588.3453, 695.0762
588.8275, 630.6777
589.3096, 571.9414
589.7917, 515.2910
590.2738, 456.2012
590.7559, 393.4121
591.2380, 352.9746
591.7202, 351.7871
592.2023, 352.0566
592.6844, 323.3242
593.1665, 260.8086
593.6486, 206.5664
594.1307, 164.4277
594.6129, 132.4688
595.0950, 105.4355
595.5771, 84.45117
596.0592, 77.11523
596.5413, 83.45898
597.0234, 107.0918
597.5056, 169.8848
597.9877, 265.0352
598.4698, 335.8867
598.9519, 321.7383
599.4340, 280.1094
599.9161, 259.6504
600.3983, 268.6934
600.8804, 297.3066
601.3625, 349.5586
601.8446, 416.5820
602.3267, 486.0098
602.8088, 585.5938
603.2910, 659.6289
603.7731, 688.3418
604.2552, 680.1484
604.7373, 683.0859
605.2194, 698.2344
605.7015, 714.0488
606.1837, 741.0547
606.6658, 777.2090
607.1479, 750.1699
607.6300, 649.7109
608.1121, 537.9355
608.5942, 492.3516
609.0764, 488.7871
609.5585, 471.9238
610.0406, 413.6523
610.5227, 352.6875
611.0048, 300.8457
611.4869, 265.7832
611.9691, 270.0000
612.4512, 377.0449
612.9333, 491.4980
613.4154, 558.2324
613.8975, 558.0879
614.3796, 597.3633
614.8618, 702.2793
615.3439, 824.3867
615.8260, 930.8086
616.3081, 1013.391
616.7902, 1109.951
617.2723, 1224.242
617.7545, 1350.143
618.2366, 1474.838
618.7187, 1600.693
619.2008, 1751.625
619.6829, 1965.861
620.1650, 2193.209
620.6472, 2346.119
621.1293, 2429.367
621.6114, 2491.375
622.0935, 2588.844
622.5756, 2665.637
623.0577, 2665.295
623.5399, 2565.932
624.0220, 2439.262
624.5041, 2297.986
624.9862, 2148.783
625.4683, 1994.971
625.9504, 1825.406
626.4326, 1665.713
626.9147, 1519.604
627.3968, 1382.582
627.8789, 1245.596
628.3610, 1112.176
628.8431, 981.6465
629.3253, 847.8770
629.8074, 713.7383
630.2895, 601.3867
630.7716, 510.5039
631.2537, 446.1191
631.7358, 443.0957
632.2180, 465.3379
632.7001, 444.6172
633.1822, 351.8301
633.6643, 252.2578
634.1464, 169.3496
634.6285, 111.5684
635.1107, 93.21289
635.5928, 179.9336
636.0749, 242.8281
636.5570, 222.8789
637.0391, 131.9863
637.5212, 82.11133
638.0034, 96.41992
638.4855, 117.4668
638.9676, 110.2695
639.4497, 66.43750
639.9318, 80.34570
640.4139, 165.4180
640.8961, 258.9746
641.3782, 290.6602
641.8603, 270.6016
642.3424, 238.8027
642.8245, 199.3867
643.3066, 161.9414
643.7888, 131.2129
644.2709, 110.2598
644.7530, 105.6328
645.2351, 140.5977
645.7172, 175.2773
646.1993, 183.8555
646.6815, 166.9023
647.1636, 165.2539
647.6457, 203.6758
648.1278, 243.9863
648.6099, 264.9355
649.0920, 250.3906
649.5742, 276.1152
650.0563, 352.5195
650.5384, 451.3398
651.0205, 541.0703
651.5026, 620.4844
651.9847, 688.0703
652.4669, 736.2383
652.9490, 780.7188
653.4311, 839.2695
653.9132, 912.9121
654.3953, 1006.926
654.8774, 1130.152
655.3596, 1270.062
655.8417, 1429.893
656.3238, 1606.846
656.8059, 1761.266
657.2880, 1830.850
657.7701, 1908.975
658.2523, 2062.910
658.7344, 2366.865
659.2165, 2572.590
659.6986, 2639.338
660.1807, 2659.285
660.6628, 2754.986
661.1450, 2935.408
661.6271, 3084.055
662.1093, 3166.322
662.5914, 3221.469
663.0735, 3351.666
663.5556, 3533.682
664.0377, 3659.238
664.5198, 3616.223
665.0020, 3526.430
665.4841, 3522.703
665.9662, 3602.416
666.4483, 3636.520
666.9304, 3552.582
667.4125, 3414.857
667.8947, 3261.447
668.3768, 3090.549
668.8589, 2910.455
669.3410, 2711.018
669.8231, 2508.703
670.3052, 2320.525
670.7874, 2147.977
671.2695, 1989.162
671.7516, 1848.141
672.2337, 1713.980
672.7158, 1562.680
673.1979, 1397.432
673.6801, 1240.740
674.1622, 1108.592
674.6443, 988.9785
675.1264, 857.7617
675.6085, 718.7441
676.0906, 604.0566
676.5728, 547.9551
677.0549, 509.2207
677.5370, 462.1699
678.0191, 399.0039
678.5012, 342.1797
678.9833, 290.0312
679.4655, 246.3398
679.9476, 221.2051
680.4297, 228.9434
680.9118, 201.5449
681.3939, 113.2500
681.8760, 0.8984380
682.3582, 63.45508
682.8403, 83.34961
683.3224, 92.93359
683.8045, 110.4844
684.2866, 121.5156
684.7687, 95.82031
685.2509, 42.85156
685.7330, 9.966797
686.2151, 48.49805
686.6972, 92.90820
687.1793, 105.5469
687.6614, 79.24609
688.1436, 44.50000
688.6257, 4.972656
689.1078, 52.52148
689.5899, 87.93359
690.0720, 112.7129
690.5541, 113.9316
691.0363, 83.01953
691.5184, 45.88867
692.0005, 43.80273
692.4826, 71.67188
692.9647, 102.6660
693.4468, 133.5215
693.9290, 158.2969
694.4111, 154.4023
694.8932, 137.6875
695.3753, 153.0820
695.8574, 257.2949
696.3395, 365.6191
696.8217, 431.7324
697.3038, 451.7422
697.7859, 487.5312
698.2680, 541.5527
698.7501, 611.0508
699.2322, 698.5098
699.7144, 808.9980
700.1965, 899.9160
700.6786, 964.1133
701.1607, 1032.600
701.6428, 1137.734
702.1249, 1275.490
702.6071, 1439.080
703.0892, 1636.234
703.5713, 1835.744
704.0534, 1996.234
704.5355, 2140.602
705.0176, 2310.529
705.4998, 2519.986
705.9819, 2757.271
706.4640, 3032.295
706.9461, 3337.488
707.4282, 3629.398
707.9103, 3875.369
708.3925, 4161.857
708.8746, 4539.350
709.3567, 5003.480
709.8388, 5419.727
710.3209, 5782.301
710.8030, 6127.367
711.2852, 6471.760
711.7673, 6820.242
712.2494, 7193.193
712.7315, 7603.713
713.2136, 7972.014
713.6957, 8231.410
714.1779, 8424.770
714.6600, 8605.758
715.1421, 8869.734
715.6242, 9010.541
716.1063, 8977.229
716.5884, 8797.508
717.0706, 8492.637
717.5527, 8017.742
718.0348, 7539.586
718.5169, 7108.834
718.9990, 6694.004
719.4811, 6199.670
719.9633, 5627.453
720.4454, 5072.078
720.9275, 4587.330
721.4096, 4150.457
721.8917, 3721.518
722.3738, 3306.395
722.8560, 2925.941
723.3381, 2602.645
723.8202, 2314.881
724.3023, 2049.664
724.7844, 1805.219
725.2665, 1599.283
725.7487, 1445.316
726.2308, 1317.340
726.7129, 1198.320
727.1950, 1092.672
727.6771, 963.3750
728.1592, 794.3223
728.6414, 627.8340
729.1235, 527.3242
729.6056, 481.7207
730.0877, 459.0176
730.5698, 465.7812
731.0519, 467.3203
731.5341, 426.9746
732.0162, 358.1426
732.4983, 294.8867
732.9804, 243.0469
733.4625, 203.6055
733.9446, 180.5137
734.4268, 171.4473
734.9089, 165.3105
735.3910, 166.6328
735.8731, 161.0059
736.3552, 141.6895
736.8373, 109.5273
737.3195, 59.49219
737.8016, 9.921875
738.2837, 59.49414
738.7658, 37.03125
739.2479, 18.82617
739.7300, 49.70898
740.2122, 40.54688
740.6943, 28.89062
741.1764, 28.33789
741.6585, 37.00195
742.1406, 53.85547
742.6227, 100.1895
743.1049, 128.7500
743.5870, 127.9727
744.0691, 111.3262
744.5512, 102.1582
745.0333, 102.3086
745.5154, 106.3438
745.9976, 112.3418
746.4797, 120.9883
746.9618, 135.4570
747.4439, 153.2891
747.9260, 164.8828
748.4081, 149.1094
748.8903, 140.2637
749.3724, 171.8750
749.8545, 236.5859
750.3366, 285.8496
750.8187, 288.2285
751.3008, 294.2207
751.7830, 328.3652
752.2651, 393.1680
752.7472, 425.4766
753.2293, 419.2988
753.7114, 403.4961
754.1935, 392.2422
754.6757, 388.1367
755.1578, 411.4551
755.6399, 466.8652
756.1220, 506.8750
756.6041, 481.9766
757.0862, 424.3301
757.5684, 367.1738
758.0505, 308.3398
758.5326, 273.1758
759.0147, 294.6914
759.4968, 331.4590
759.9789, 334.0684
760.4611, 287.4453
760.9432, 240.4375
761.4253, 194.8340
761.9074, 155.7832
762.3895, 136.3223
762.8716, 134.3184
763.3538, 131.8574
763.8359, 121.7051
764.3180, 108.2852
764.8001, 106.1133
765.2822, 106.2148
765.7643, 82.59570
766.2465, 19.25000
766.7286, 104.3301
767.2107, 119.3496
767.6928, 68.61719
768.1749, 39.63281
768.6570, 37.80078
769.1392, 46.35352
769.6213, 63.51758
770.1034, 87.13477
770.5855, 97.17578
771.0676, 94.29883
771.5497, 35.72852
772.0319, 13.56055
772.5140, 5.572266
772.9961, 21.85742
773.4782, 26.70117
773.9603, 46.30664
774.4424, 60.00391
774.9246, 73.45703
775.4067, 95.14258
775.8888, 101.6562
776.3709, 123.2090
776.8530, 138.7500
777.3351, 157.0430
777.8173, 169.3926
778.2994, 183.5742
778.7815, 203.7051
779.2636, 220.5430
779.7457, 232.2148
780.2278, 250.7051
780.7100, 228.7891
781.1921, 256.3438
781.6742, 307.2090
782.1563, 355.2617
782.6384, 388.0371
783.1205, 408.8613
783.6027, 425.6152
784.0848, 437.6777
784.5669, 446.2617
785.0490, 441.7773
785.5311, 438.1445
786.0132, 494.1621
786.4954, 611.3848
786.9775, 713.4590
787.4596, 759.4531
787.9417, 773.9512
788.4238, 781.6504
788.9059, 788.2988
789.3881, 820.5039
789.8702, 922.2402
790.3523, 1028.250
790.8344, 1097.834
791.3165, 1126.520
791.7986, 1169.639
792.2808, 1226.326
792.7629, 1300.260
793.2450, 1401.172
793.7271, 1527.588
794.2092, 1626.422
794.6913, 1693.705
795.1735, 1770.285
795.6556, 1913.562
796.1377, 2074.967
796.6198, 2167.252
797.1019, 2167.109
797.5840, 2203.287
798.0662, 2368.572
798.5483, 2578.727
799.0304, 2768.994
799.5125, 2945.246
799.9946, 3074.232
800.4767, 3140.004
800.9589, 3185.842
801.4410, 3263.254
801.9231, 3370.641
802.4052, 3470.023
802.8873, 3555.096
803.3694, 3635.730
803.8516, 3722.557
804.3337, 3813.098
804.8158, 3902.252
805.2979, 3994.504
805.7800, 4074.832
806.2621, 4123.250
806.7443, 4159.160
807.2264, 4224.543
807.7085, 4357.574
808.1906, 4424.523
808.6727, 4384.139
809.1548, 4282.588
809.6370, 4229.225
810.1191, 4214.713
810.6012, 4174.719
811.0833, 4072.193
811.5654, 3944.105
812.0475, 3814.404
812.5297, 3689.041
813.0118, 3586.197
813.4939, 3537.094
813.9760, 3484.471
814.4581, 3399.141
814.9402, 3292.732
815.4224, 3226.525
815.9045, 3213.674
816.3866, 3192.412
816.8687, 3123.010
817.3508, 3031.277
817.8329, 3006.984
818.3151, 3041.219
818.7972, 3068.057
819.2793, 3036.922
819.7614, 2989.320
820.2435, 2940.492
820.7256, 2894.816
821.2078, 2905.201
821.6899, 3060.242
822.1720, 3193.727
822.6541, 3230.473
823.1362, 3168.236
823.6183, 3160.184
824.1005, 3214.355
824.5826, 3266.957
825.0647, 3276.697
825.5469, 3260.262
826.0290, 3235.145
826.5111, 3200.736
826.9932, 3175.826
827.4753, 3192.705
827.9575, 3208.682
828.4396, 3190.973
828.9217, 3124.199
829.4038, 3072.709
829.8859, 3050.561
830.3680, 3015.381
830.8502, 2923.199
831.3323, 2777.248
831.8144, 2663.518
832.2965, 2591.471
832.7786, 2520.324
833.2607, 2398.896
833.7429, 2258.953
834.2250, 2150.725
834.7071, 2097.680
835.1892, 2018.584
835.6713, 1842.936
836.1534, 1654.752
836.6356, 1531.305
837.1177, 1505.043
837.5998, 1455.434
838.0819, 1372.965
838.5640, 1277.754
839.0461, 1192.529
839.5283, 1114.648
840.0104, 1030.561
840.4925, 930.0996
840.9746, 849.3926
841.4567, 840.6250
841.9388, 858.1387
842.4210, 848.0332
842.9031, 784.8613
843.3852, 708.6387
843.8673, 598.6172
844.3494, 497.3359
844.8315, 471.7539
845.3137, 528.9316
845.7958, 556.3652
846.2779, 528.5352
846.7600, 487.6855
847.2421, 505.1230
847.7242, 549.3086
848.2064, 552.6797
848.6885, 452.6660
849.1706, 371.3516
849.6527, 374.5684
850.1348, 423.0215
850.6169, 453.5703
851.0991, 460.3223
851.5812, 457.7930
852.0633, 446.1797
852.5454, 427.6289
853.0275, 399.8730
853.5096, 366.3457
853.9918, 348.1309
854.4739, 360.8750
854.9560, 374.1270
855.4381, 363.3926
855.9202, 334.6289
856.4023, 298.0332
856.8845, 229.4473
857.3666, 190.1328
857.8487, 200.4590
858.3308, 237.2598
858.8129, 259.6582
859.2950, 268.4609
859.7772, 256.1289
860.2593, 213.0137
860.7414, 162.7812
861.2235, 143.1855
861.7056, 145.1230
862.1877, 147.1797
862.6699, 142.5215
863.1520, 135.0195
863.6341, 126.6602
864.1162, 116.5664
864.5983, 101.8984
865.0804, 76.80469
865.5626, 62.21484
866.0447, 65.78711
866.5268, 78.44727
867.0089, 78.62305
867.4910, 70.11719
867.9731, 70.15234
868.4553, 85.68750
868.9374, 110.5430
869.4195, 156.5625
869.9016, 206.3066
870.3837, 223.2539
870.8658, 152.2852
871.3480, 107.5996
871.8301, 112.6016
872.3122, 147.4766
872.7943, 167.1465
873.2764, 171.1934
873.7585, 181.6270
874.2407, 213.2246
874.7228, 241.6270
875.2049, 224.5195
875.6870, 181.9844
876.1691, 156.6367
876.6512, 183.5234
877.1334, 208.2402
877.6155, 221.0371
878.0976, 220.6211
878.5797, 199.5879
879.0618, 153.5742
879.5439, 110.7891
880.0261, 79.08008
880.5082, 52.40820
880.9903, 16.89844
881.4724, 22.68359
881.9545, 53.11523
882.4366, 67.92188
882.9188, 73.67578
883.4009, 71.40234
883.8830, 63.02930
884.3651, 52.05469
884.8472, 34.84375
885.3293, 26.87305
885.8115, 32.87891
886.2936, 42.84961
886.7757, 37.10352
887.2578, 17.59570
887.7399, 6.101563
888.2220, 33.07812
888.7042, 59.13672
889.1863, 85.35156
889.6684, 107.9121
890.1505, 120.5547
890.6326, 117.0137
891.1147, 109.5449
891.5969, 97.18945
892.0790, 84.12500
892.5611, 82.52344
893.0432, 91.79102
893.5253, 79.11328
894.0074, 28.24609
894.4896, 23.11328
894.9717, 23.94727
895.4538, 2.642578
895.9359, 18.41016
896.4180, 3.302734
896.9001, 12.08594
897.3823, 25.42188
897.8644, 33.39648
898.3465, 30.05469
898.8286, 13.21875
899.3107, 1.5625000E-02
899.7928, 6.263672
900.2750, 11.85547
900.7571, 28.24805
901.2392, 49.13477
901.7213, 62.41406
902.2034, 61.37305
902.6855, 59.86914
903.1677, 71.88086
903.6498, 81.25391
904.1319, 67.88672
904.6140, 18.22266
905.0961, 10.97461
905.5782, 14.08984
906.0604, 3.201172
906.5425, 10.02148
907.0246, 26.33398
907.5067, 51.96875
907.9888, 92.51758
908.4709, 118.3691
908.9531, 95.46875
909.4352, 59.24023
909.9173, 41.37305
910.3994, 48.44336
910.8815, 64.05469
911.3636, 92.83984
911.8458, 119.5547
912.3279, 128.6562
912.8100, 123.2402
913.2921, 116.2480
913.7742, 108.3887
914.2563, 101.3711
914.7385, 92.23633
915.2206, 87.34180
915.7027, 95.97461
916.1848, 125.6973
916.6669, 134.4336
917.1490, 104.6465
917.6312, 81.49414
918.1133, 103.2207
918.5954, 163.0918
919.0775, 190.0254
919.5596, 184.1230
920.0417, 164.4941
920.5239, 140.3711
921.0060, 112.2891
921.4881, 71.92383
921.9702, 19.25195
922.4523, 1.066406
922.9344, 36.27930
923.4166, 78.05078
923.8987, 105.9434
924.3808, 120.2441
924.8629, 120.2812
925.3450, 106.6797
925.8271, 98.38867
926.3093, 119.4023
926.7914, 141.4062
927.2735, 128.0723
927.7556, 88.60352
928.2377, 67.97852
928.7198, 110.2930
929.2020, 133.1387
929.6841, 108.5586
930.1662, 54.04492
930.6483, 26.87500
931.1304, 26.71484
931.6125, 43.14648
932.0947, 88.98438
932.5768, 129.2520
933.0589, 110.9707
933.5410, 58.64258
934.0231, 27.14453
934.5052, 50.58008
934.9874, 76.72461
935.4695, 102.9922
935.9516, 122.7617
936.4337, 117.8340
936.9158, 87.63477
937.3979, 71.07031
937.8801, 77.35352
938.3622, 98.86719
938.8443, 139.5879
939.3264, 183.1562
939.8085, 208.6836
940.2906, 219.7832
940.7728, 195.4238
941.2549, 95.71680
941.7370, 6.347656
942.2191, 32.17188
942.7012, 22.36328
943.1833, 73.45703
943.6655, 114.0469
944.1476, 142.7266
944.6297, 151.5156
945.1118, 152.8457
945.5939, 163.2949
946.0760, 188.4590
946.5582, 204.0762
947.0403, 193.6152
947.5224, 182.3379
948.0045, 189.4668
948.4866, 216.4297
948.9688, 203.0742
949.4509, 146.1641
949.9330, 102.5059
950.4151, 138.9883
950.8972, 198.0488
951.3793, 197.4922
951.8615, 138.4238
952.3436, 117.9453
952.8257, 233.0527
953.3078, 321.8535
953.7899, 313.2539
954.2720, 228.7500
954.7542, 206.8750
955.2363, 247.3105
955.7184, 286.9375
956.2005, 291.1191
956.6826, 281.7734
957.1647, 275.7305
957.6469, 274.1602
958.1290, 281.5762
958.6111, 311.3242
959.0932, 336.1953
959.5753, 357.4570
960.0574, 366.4316
960.5396, 334.4082
961.0217, 265.1836
961.5038, 215.1660
961.9859, 201.8672
962.4680, 208.1445
962.9501, 224.9492
963.4323, 247.4199
963.9144, 267.8047
964.3965, 272.9023
964.8786, 295.9863
965.3607, 355.9922
965.8428, 412.7012
966.3250, 405.0312
966.8071, 342.3652
967.2892, 355.8848
967.7713, 464.7168
968.2534, 569.9492
968.7355, 569.4922
969.2177, 542.0469
969.6998, 563.8457
970.1819, 664.2402
970.6640, 721.2617
971.1461, 701.7480
971.6282, 686.5059
972.1104, 729.2168
972.5925, 817.4609
973.0746, 882.9180
973.5567, 927.6621
974.0388, 961.0352
974.5209, 981.3613
975.0031, 1009.078
975.4852, 1065.879
975.9673, 1144.568
976.4494, 1198.100
976.9315, 1224.646
977.4136, 1222.391
977.8958, 1177.846
978.3779, 1117.986
978.8600, 1110.961
979.3421, 1142.070
979.8242, 1160.648
980.3063, 1151.973
980.7885, 1121.170
981.2706, 1050.105
981.7527, 966.0762
982.2348, 912.9121
982.7169, 908.5312
983.1990, 883.5449
983.6812, 828.8379
984.1633, 766.1035
984.6454, 722.5020
985.1275, 690.4121
985.6096, 656.5195
986.0917, 613.9902
986.5739, 568.1797
987.0560, 509.8613
987.5381, 470.1035
988.0202, 472.8672
988.5023, 522.4844
988.9844, 555.6465
989.4666, 572.9609
989.9487, 567.0801
990.4308, 516.2500
990.9130, 446.9473
991.3951, 390.9082
991.8772, 349.9375
992.3593, 328.8320
992.8414, 354.2090
993.3235, 369.3301
993.8057, 355.6074
994.2878, 321.0488
994.7699, 284.5176
995.2520, 246.7422
995.7341, 227.1172
996.2162, 242.7246
996.6984, 262.9395
997.1805, 260.7480
997.6626, 240.5391
998.1447, 209.4707
998.6268, 149.0098
999.1089, 109.6465
999.5911, 97.24609
1000.073, 99.11133
1000.555, 110.0723
1001.037, 126.7090
1001.520, 134.9180
1002.002, 132.2539
1002.484, 131.5859
1002.966, 150.8438
1003.448, 168.4668
1003.930, 163.5840
1004.412, 130.6055
1004.894, 103.3242
1005.376, 73.08203
1005.859, 72.94336
1006.341, 146.3379
1006.823, 249.8438
1007.305, 264.6191
1007.787, 208.2012
1008.269, 156.1406
1008.751, 143.2500
1009.233, 143.8027
1009.716, 158.7305
1010.198, 176.8438
1010.680, 174.5879
1011.162, 148.5234
1011.644, 123.1250
1012.126, 99.07031
1012.608, 89.40625
1013.090, 134.9434
1013.572, 195.8926
1014.055, 205.3555
1014.537, 111.1484
1015.019, 66.67383
1015.501, 134.3145
1015.983, 215.6426
1016.465, 243.4434
1016.947, 219.3945
1017.429, 164.1074
1017.911, 78.76953
1018.394, 17.46094
1018.876, 49.13281
1019.358, 96.22070
1019.840, 84.37109
1020.322, 20.29688
1020.804, 4.609375
1021.286, 70.19141
1021.768, 116.3418
1022.251, 109.3535
1022.733, 70.86133
1023.215, 31.46289
1023.697, 0.9316410
1024.179, 2.501953
1024.661, 95.60352
1025.143, 153.3281
1025.625, 73.70312
1026.107, 43.21484
1026.590, 79.56250
1027.072, 17.76367
1027.554, 35.83203
1028.036, 76.94531
1028.518, 102.7383
1029.000, 116.0957
1029.482, 109.1777
1029.964, 52.48438
1030.447, 56.54102
1030.929, 113.5000
1031.411, 52.82617
1031.893, 14.44727
1032.375, 50.72852
1032.857, 63.68945
1033.339, 84.89844
1033.821, 112.2969
1034.303, 129.3086
1034.786, 123.1738
1035.268, 110.1055
1035.750, 90.03711
1036.232, 73.26172
1036.714, 82.16992
1037.196, 133.2910
1037.678, 162.5078
1038.160, 160.7852
1038.642, 145.3281
1039.125, 133.0371
1039.607, 122.9648
1040.089, 113.3711
1040.571, 104.0938
1041.053, 96.45312
1041.535, 110.9629
1042.017, 106.1484
1042.499, 45.50586
1042.982, 58.10352
1043.464, 72.95703
1043.946, 0.1894530
1044.428, 64.36523
1044.910, 58.27930
1045.392, 33.10938
1045.874, 39.20898
1046.356, 62.26758
1046.839, 66.43359
1047.321, 23.15039
1047.803, 7.179688
1048.285, 33.91797
1048.767, 73.09375
1049.249, 75.01172
1049.731, 57.30859
1050.213, 86.47461
1050.695, 182.8145
1051.177, 237.1016
1051.660, 145.0137
1052.142, 37.72656
1052.624, 3.080078
1053.106, 38.30664
1053.588, 55.16016
1054.070, 53.67578
1054.552, 52.58789
1055.034, 68.89453
1055.517, 84.57227
1055.999, 70.42969
1056.481, 39.73828
1056.963, 26.34766
1057.445, 50.22461
1057.927, 73.35156
1058.409, 93.56055
1058.891, 108.2285
1059.374, 104.9590
1059.856, 92.34180
1060.338, 108.6172
1060.820, 164.7461
1061.302, 201.6465
1061.784, 170.8281
1062.266, 123.2363
1062.748, 90.46484
1063.230, 73.20898
1063.713, 64.62305
1064.195, 65.63867
1064.677, 74.66016
1065.159, 90.65430
1065.641, 116.1348
1066.123, 174.6484
1066.605, 242.7051
1067.087, 265.8359
1067.569, 176.1973
1068.052, 120.5625
1068.534, 113.1582
1069.016, 136.9707
1069.498, 190.1016
1069.980, 255.4590
1070.462, 276.9980
1070.944, 247.8203
1071.426, 207.3281
1071.909, 168.6836
1072.391, 144.4180
1072.873, 150.5957
1073.355, 182.1074
1073.837, 163.2266
1074.319, 92.11523
1074.801, 42.39453
1075.283, 55.59375
1075.766, 97.60742
1076.248, 146.6914
1076.730, 193.7422
1077.212, 218.9531
1077.694, 208.9941
1078.176, 187.2207
1078.658, 145.6543
1079.140, 109.2441
1079.622, 107.9961
1080.105, 131.9492
1080.587, 164.9180
1081.069, 204.5918
1081.551, 221.4375
1082.033, 163.6934
1082.515, 122.6816
1082.997, 153.5020
1083.479, 232.4648
1083.962, 248.8789
1084.444, 206.5938
1084.926, 164.2129
1085.408, 134.4004
1085.890, 116.6641
1086.372, 119.8613
1086.854, 131.8320
1087.336, 133.6699
1087.818, 110.8809
1088.301, 100.2754
1088.783, 99.61328
1089.265, 122.8848
1089.747, 206.4883
1090.229, 301.3613
1090.711, 301.0215
1091.193, 216.0020
1091.675, 155.3535
1092.157, 180.7402
1092.640, 212.1094
1093.122, 228.4062
1093.604, 236.6484
1094.086, 261.8359
1094.568, 297.6582
1095.050, 297.1934
1095.532, 238.3770
1096.014, 178.8984
1096.497, 151.5762
1096.979, 147.0156
1097.461, 157.0586
1097.943, 181.1387
1098.425, 225.6953
1098.907, 296.5059
1099.389, 340.6641
1099.871, 297.9805
1100.354, 230.1406
1100.836, 212.2188
1101.318, 230.9414
1101.800, 240.6094
1102.282, 224.0254
1102.764, 196.1953
1103.246, 156.1152
1103.728, 111.1289
1104.210, 66.37500
1104.693, 26.08789
1105.175, 1.375000
1105.657, 5.603516
1106.139, 5.949219
1106.621, 6.371094
1107.103, 2.544922
1107.585, 34.38867
1108.067, 79.38672
1108.549, 77.95898
1109.032, 33.41797
1109.514, 13.57617
1109.996, 60.33789
1110.478, 82.59180
1110.960, 36.60938
1111.442, 34.62695
1111.924, 68.81836
1112.406, 47.97266
1112.889, 47.42969
1113.371, 71.35742
1113.853, 95.56836
1114.335, 92.95508
1114.817, 81.45117
1115.299, 85.18945
1115.781, 102.6855
1116.263, 117.6953
1116.745, 132.2402
1117.228, 132.5957
1117.710, 109.7617
1118.192, 81.17969
1118.674, 87.83789
1119.156, 113.3535
1119.638, 111.8965
1120.120, 66.30469
1120.602, 24.76953
1121.084, 2.750000
1121.567, 8.189453
1122.049, 23.12109
1122.531, 84.32812
1123.013, 99.88281
1123.495, 74.75586
1123.977, 58.78711
1124.459, 95.76953
1124.941, 131.3281
1125.424, 126.5020
1125.906, 99.43555
1126.388, 86.89453
1126.870, 99.36328
1127.352, 67.32812
1127.834, 24.01562
1128.316, 94.90234
1128.798, 43.89648
1129.281, 44.99609
1129.763, 74.08594
1130.245, 42.30273
1130.727, 44.22852
1131.209, 110.4922
1131.691, 152.0410
1132.173, 138.2852
1132.655, 100.0000
1133.137, 85.17969
1133.620, 87.04102
1134.102, 93.50391
1134.584, 104.2676
1135.066, 108.8496
1135.548, 93.88867
1136.030, 87.31836
1136.512, 107.2871
1136.994, 149.0781
1137.476, 198.5898
1137.959, 251.1152
1138.441, 285.1465
1138.923, 297.8223
1139.405, 279.2227
1139.887, 184.1133
1140.369, 79.58398
1140.851, 59.73828
1141.333, 126.3320
1141.816, 167.8945
1142.298, 175.3281
1142.780, 164.9414
1143.262, 138.0039
1143.744, 108.7969
1144.226, 90.92969
1144.708, 82.27734
1145.190, 58.50586
1145.672, 12.43750
1146.155, 8.9844003E-02
1146.637, 47.27930
1147.119, 102.8945
1147.601, 96.31641
1148.083, 64.06836
1148.565, 52.56055
1149.047, 73.72266
1149.529, 106.9512
1150.011, 159.0156
1150.494, 200.5723
1150.976, 214.6680
1151.458, 207.4883
1151.940, 179.2891
1152.422, 140.6738
1152.904, 119.4336
1153.386, 154.0977
1153.868, 164.1152
1154.351, 126.1113
1154.833, 87.43164
1155.315, 115.0645
1155.797, 183.8262
1156.279, 198.8301
1156.761, 159.0840
1157.243, 122.2637
1157.725, 101.2188
1158.208, 110.4961
1158.690, 178.2148
1159.172, 258.8262
1159.654, 222.7344
1160.136, 90.97070
1160.618, 23.59570
1161.100, 65.03906
1161.582, 109.6367
1162.064, 66.97266
1162.547, 20.35352
1163.029, 39.92578
1163.511, 119.2422
1163.993, 144.6133
1164.475, 117.8555
1164.957, 91.93750
1165.439, 88.79688
1165.921, 97.76758
1166.403, 120.6484
1166.886, 145.4062
1167.368, 153.5859
1167.850, 139.2793
1168.332, 122.8301
1168.814, 108.4805
1169.296, 97.00000
1169.778, 79.38867
1170.260, 68.29883
1170.743, 84.05859
1171.225, 118.3301
1171.707, 140.5723
1172.189, 142.9199
1172.671, 146.2910
1173.153, 153.7207
1173.635, 160.2930
1174.117, 152.6309
1174.599, 144.4883
1175.082, 163.8340
1175.564, 213.3145
1176.046, 233.3242
1176.528, 202.6289
1177.010, 176.1582
1177.492, 171.4727
1177.974, 178.4336
1178.456, 185.0879
1178.938, 188.3301
1179.421, 180.9219
1179.903, 158.2324
1180.385, 140.6738
1180.867, 134.9629
1181.349, 130.0566
1181.831, 115.4043
1182.313, 98.76367
1182.795, 109.7461
1183.278, 141.1738
1183.760, 168.9277
1184.242, 164.7676
1184.724, 181.1777
1185.206, 252.6055
1185.688, 317.3652
1186.170, 304.5312
1186.652, 236.5273
1187.135, 195.5488
1187.617, 181.0449
1188.099, 177.6074
1188.581, 180.1543
1189.063, 191.1699
1189.545, 223.9707
1190.027, 256.8555
1190.509, 244.6348
1190.991, 194.0605
1191.474, 158.2402
1191.956, 145.3125
1192.438, 139.3398
1192.920, 132.8516
1193.402, 126.2871
1193.884, 112.5234
1194.366, 100.7285
1194.848, 136.9746
1195.330, 215.7676
1195.813, 257.0547
1196.295, 229.9375
1196.777, 184.9180
1197.259, 130.1016
1197.741, 98.78906
1198.223, 136.3652
1198.705, 241.9297
1199.187, 248.8047
1199.670, 157.8496
1200.152, 87.12500
1200.634, 114.4316
1201.116, 155.8535
1201.598, 151.8008
1202.080, 119.9707
1202.562, 81.22461
1203.044, 27.75586
1203.526, 20.51562
1204.009, 62.79102
1204.491, 101.5742
1204.973, 94.54297
1205.455, 72.35742
1205.937, 52.62500
1206.419, 39.61523
1206.901, 45.26758
1207.383, 78.05078
1207.865, 85.60352
1208.348, 52.73828
1208.830, 29.17383
1209.312, 81.44141
1209.794, 154.9707
1210.276, 205.5098
1210.758, 228.0098
1211.240, 222.7383
1211.722, 186.7578
1212.205, 131.6719
1212.687, 50.24805
1213.169, 14.77539
1213.651, 3.152344
1214.133, 52.08789
1214.615, 79.39062
1215.097, 72.88477
1215.579, 52.54883
1216.062, 12.57227
1216.544, 5.498047
1217.026, 22.91602
1217.508, 60.93750
1217.990, 59.54883
1218.472, 38.61523
1218.954, 23.89844
1219.436, 15.84375
1219.918, 31.94141
1220.401, 79.14062
1220.883, 117.1191
1221.365, 105.0605
1221.847, 76.68359
1222.329, 89.86328
1222.811, 127.8594
1223.293, 154.0645
1223.775, 161.3359
1224.257, 161.2402
1224.740, 152.1445
1225.222, 144.4531
1225.704, 152.4590
1226.186, 162.8770
1226.668, 156.3555
1227.150, 137.2988
1227.632, 119.0508
1228.114, 90.11914
1228.597, 100.9512
1229.079, 164.2656
1229.561, 234.5488
1230.043, 263.9434
1230.525, 272.4922
1231.007, 291.4414
1231.489, 316.4941
1231.971, 296.4199
1232.453, 211.0684
1232.936, 136.3320
1233.418, 84.55273
1233.900, 57.82617
1234.382, 66.60938
1234.864, 97.30273
1235.346, 150.9746
1235.828, 227.4941
1236.310, 219.2324
1236.792, 90.23438
1237.275, 9.343750
1237.757, 36.56250
1238.239, 116.2227
1238.721, 220.2109
1239.203, 307.4668
1239.685, 313.5195
1240.167, 207.2266
1240.650, 137.5449
1241.132, 109.5000
1241.614, 97.26953
1242.096, 93.84961
1242.578, 93.30273
1243.060, 85.95898
1243.542, 77.25781
1244.024, 77.06055
1244.506, 90.73047
1244.989, 94.86523
1245.471, 88.38672
1245.953, 77.79492
1246.435, 63.04297
1246.917, 49.86719
1247.399, 44.43945
1247.881, 45.70117
1248.363, 54.79297
1248.845, 84.89258
1249.328, 68.70508
1249.810, 4.664063
1250.292, 64.51953
1250.774, 52.27344
1251.256, 5.486328
1251.738, 58.04102
1252.220, 124.0938
1252.702, 157.0410
1253.185, 145.4961
1253.667, 162.8086
1254.149, 218.7812
1254.631, 262.4609
1255.113, 243.7188
1255.595, 199.5859
1256.077, 147.0625
1256.559, 94.92969
1257.042, 68.64258
1257.524, 71.29492
1258.006, 68.46289
1258.488, 54.24805
1258.970, 50.07227
1259.452, 94.66016
1259.934, 137.7773
1260.416, 131.9180
1260.898, 94.69922
1261.380, 93.96875
1261.863, 129.4492
1262.345, 152.9570
1262.827, 153.6875
1263.309, 131.7734
1263.791, 64.42578
1264.273, 4.814453
1264.755, 53.08398
1265.237, 75.82031
1265.720, 29.33594
1266.202, 76.72852
1266.684, 140.1777
1267.166, 122.7012
1267.648, 90.93555
1268.130, 75.69141
1268.612, 70.31250
1269.094, 66.68164
1269.577, 67.47070
1270.059, 109.2930
1270.541, 176.1914
1271.023, 188.3066
1271.505, 76.76953
1271.987, 3.480469
1272.469, 67.90039
1272.951, 147.1543
1273.433, 139.1406
1273.916, 69.16992
1274.398, 52.56055
1274.880, 78.64062
1275.362, 105.6738
1275.844, 119.2090
1276.326, 132.4609
1276.808, 166.2148
1277.290, 175.9434
1277.772, 98.80469
1278.255, 25.27148
1278.737, 64.19727
1279.219, 8.404297
1279.701, 53.63867
1280.183, 99.75000
1280.665, 128.1484
1281.147, 129.8867
1281.629, 132.5898
1282.112, 170.2363
1282.594, 220.8770
1283.076, 244.4023
1283.558, 243.4824
1284.040, 223.0391
1284.522, 147.4785
1285.004, 140.5391
1285.486, 225.7051
1285.969, 282.6875
1286.451, 244.7910
1286.933, 169.9688
1287.415, 136.9785
1287.897, 137.5039
1288.379, 113.5312
1288.861, 46.61133
1289.343, 8.851563
1289.825, 29.39062
1290.307, 60.50195
1290.790, 59.75195
1291.272, 54.86523
1291.754, 62.83398
1292.236, 84.94336
1292.718, 92.42773
1293.200, 159.2754
1293.682, 182.2871
1294.164, 132.4121
1294.647, 81.62305
1295.129, 88.30859
1295.611, 117.4062
1296.093, 158.1797
1296.575, 199.0586
1297.057, 198.8867
1297.539, 161.4824
1298.021, 137.2676
1298.504, 147.5215
1298.986, 157.2812
1299.468, 143.2930
1299.950, 129.7441
1300.432, 127.5977
1300.914, 129.9883
1301.396, 115.4512
1301.878, 88.89844
1302.360, 67.00195
1302.843, 49.50781
1303.325, 42.88477
1303.807, 63.06250
1304.289, 74.99023
1304.771, 62.83594
1305.253, 39.41797
1305.735, 21.51758
1306.217, 0.0000000E+00
##END=



