##NAMES=Magnesio-hastingsite
##RRUFFID=R040010
##IDEAL CHEMISTRY=NaCa_2_(Mg_4_Fe^3+^)Si_6_Al_2_O_22_(OH)_2_
##LOCALITY=Amity, New York, USA
##OWNER=RRUFF
##SOURCE=University of Arizona Mineral Museum
##DESCRIPTION=Group of black prismatic crystals
##STATUS=The identification of this mineral has been confirmed by X-ray diffraction and chemical analysis
##URL=rruff.info/R040010
##MEASURED CHEMISTRY=(Na_0.50_K_0.43_[box]_0.07_)_Σ=1_(Ca_1.77_Na_0.23_)_Σ=2_(Mg_1.74_Fe_1.22_Fe^3+^_0.79_Mn_0.57_Al_0.30_Zn_0.25_Ti_0.13_)_Σ=5_(Si_5.95_Al_2.05_)_Σ=8_O_22_((OH)_1.75_F_0.22_Cl_0.03_)_Σ=2_; OH estimated by charge balance
##PIN_ID=L00361
##ORIENTATION=Laser parallel to -b* (0 -1 0). Fiducial mark perpendicular to laser is parallel to c [0 0 1]
164.6200, 0.0000000E+00
165.8510, 97.58984
167.0820, 14.49609
168.3130, 7.750000
169.5440, 338.6758
170.7750, 422.9688
172.0050, 911.5703
173.2350, 950.1719
174.4650, 1268.188
175.6950, 1643.973
176.9250, 2050.684
178.1550, 2289.297
179.3840, 2578.414
180.6130, 2722.551
181.8420, 3030.395
183.0710, 3193.301
184.3000, 3439.887
185.5280, 3411.902
186.7570, 3684.980
187.9850, 3014.836
189.2130, 2933.297
190.4400, 2769.250
191.6680, 2580.555
192.8960, 2214.367
194.1230, 2149.820
195.3500, 2232.992
196.5770, 1922.957
197.8030, 1926.770
199.0300, 2085.469
200.2560, 2742.098
201.4830, 2632.680
202.7090, 2647.250
203.9340, 2155.867
205.1600, 1405.605
206.3860, 1274.539
207.6110, 1792.699
208.8360, 2408.184
210.0610, 3167.613
211.2860, 3800.844
212.5100, 4839.715
213.7350, 5725.445
214.9590, 6256.988
216.1830, 7067.105
217.4070, 7684.633
218.6310, 8160.551
219.8540, 8697.824
221.0780, 9321.438
222.3010, 9292.367
223.5240, 9478.578
224.7470, 9098.051
225.9690, 8871.750
227.1920, 8290.648
228.4140, 7884.746
229.6360, 6886.031
230.8580, 6142.488
232.0800, 5404.098
233.3020, 5014.863
234.5230, 4297.773
235.7440, 3741.812
236.9650, 2958.016
238.1860, 2642.445
239.4070, 2240.996
240.6280, 1843.770
241.8480, 1352.168
243.0680, 1019.219
244.2880, 902.9023
245.5080, 730.2695
246.7280, 534.0938
247.9470, 502.7109
249.1660, 217.5625
250.3860, 104.2266
251.6040, 290.7891
252.8230, 479.1055
254.0420, 249.2734
255.2600, 104.4961
256.4790, 40.15625
257.6970, 297.3672
258.9150, 139.3203
260.1320, 147.6680
261.3500, 162.8281
262.5670, 53.66797
263.7840, 156.7344
265.0010, 56.07422
266.2180, 100.1328
267.4350, 176.8125
268.6510, 228.0586
269.8680, 282.7734
271.0840, 343.4844
272.3000, 428.1875
273.5160, 571.8867
274.7310, 930.5703
275.9470, 1086.250
277.1620, 1135.918
278.3770, 1093.574
279.5920, 1247.215
280.8070, 1498.969
282.0210, 1562.449
283.2360, 1702.660
284.4500, 1812.172
285.6640, 1842.977
286.8780, 1834.691
288.0920, 1815.199
289.3050, 1944.586
290.5180, 1887.598
291.7320, 2065.207
292.9450, 2033.793
294.1570, 1783.363
295.3700, 1626.914
296.5830, 1882.438
297.7950, 1797.938
299.0070, 1577.406
300.2190, 1648.852
301.4310, 1372.273
302.6420, 1567.656
303.8540, 1437.004
305.0650, 1366.328
306.2760, 1108.609
307.4870, 912.4375
308.6980, 875.3008
309.9080, 1104.812
311.1190, 717.7852
312.3290, 950.0898
313.5390, 1308.457
314.7490, 1032.746
315.9580, 989.3906
317.1680, 781.3242
318.3770, 950.9297
319.5860, 942.9570
320.7950, 748.7773
322.0040, 1119.148
323.2130, 896.4492
324.4210, 1219.004
325.6290, 1222.000
326.8380, 930.0391
328.0460, 1291.148
329.2530, 1263.438
330.4610, 1361.223
331.6680, 1473.184
332.8760, 1343.336
334.0830, 1262.281
335.2890, 1358.551
336.4960, 1610.867
337.7030, 1570.211
338.9090, 1886.812
340.1150, 1976.258
341.3210, 2210.738
342.5270, 2649.566
343.7330, 2671.711
344.9380, 2690.848
346.1440, 2771.977
347.3490, 3489.098
348.5540, 3803.211
349.7590, 4281.320
350.9630, 4519.410
352.1680, 4987.496
353.3720, 5294.516
354.5760, 5898.031
355.7800, 6286.363
356.9840, 6556.512
358.1870, 6662.531
359.3910, 7004.473
360.5940, 7057.355
361.7970, 7301.234
363.0000, 7322.117
364.2030, 7440.992
365.4050, 7482.859
366.6080, 7166.723
367.8100, 7287.578
369.0120, 7136.418
370.2140, 6545.246
371.4150, 6416.055
372.6170, 6254.855
373.8180, 6004.633
375.0190, 5680.395
376.2200, 5559.129
377.4210, 5365.848
378.6220, 4735.539
379.8220, 4617.207
381.0230, 4187.852
382.2230, 4255.465
383.4230, 3635.055
384.6220, 3671.613
385.8220, 3138.141
387.0220, 3129.633
388.2210, 2599.082
389.4200, 2529.492
390.6190, 2473.867
391.8180, 2204.188
393.0160, 2206.453
394.2150, 2051.309
395.4130, 1710.559
396.6110, 1814.148
397.8090, 1568.297
399.0060, 1438.910
400.2040, 1419.668
401.4010, 1394.500
402.5980, 1301.641
403.7950, 1364.980
404.9920, 1362.934
406.1890, 1459.223
407.3860, 1245.789
408.5820, 1628.250
409.7780, 1319.695
410.9740, 1534.070
412.1700, 1386.387
413.3650, 1637.637
414.5610, 1716.824
415.7560, 1788.945
416.9510, 1783.000
418.1460, 1846.992
419.3410, 2274.918
420.5360, 2166.777
421.7300, 2355.578
422.9240, 2217.309
424.1180, 2450.969
425.3120, 2642.566
426.5060, 2611.102
427.7000, 2582.570
428.8930, 2424.980
430.0860, 2308.754
431.2790, 2352.602
432.4720, 1987.824
433.6650, 1946.980
434.8580, 1856.074
436.0500, 1844.102
437.2420, 1520.070
438.4340, 1427.969
439.6260, 1409.809
440.8180, 1318.578
442.0090, 892.2891
443.2010, 872.9297
444.3920, 807.5078
445.5830, 585.0156
446.7740, 642.4609
447.9640, 405.2930
449.1550, 256.2070
450.3450, 215.9023
451.5350, 267.0859
452.7250, 40.66016
453.9150, 237.6562
455.1050, 86.02734
456.2940, 83.23438
457.4830, 2.984375
458.6720, 114.0508
459.8610, 291.7031
461.0500, 125.0781
462.2390, 210.8945
463.4270, 105.4180
464.6150, 128.4141
465.8040, 127.3828
466.9910, 121.5898
468.1790, 123.3789
469.3670, 8.187500
470.5540, 77.62891
471.7410, 40.53516
472.9280, 84.26953
474.1150, 59.84375
475.3020, 244.9492
476.4890, 7.128906
477.6750, 242.4961
478.8610, 192.5430
480.0470, 373.9922
481.2330, 433.3750
482.4190, 760.6172
483.6040, 1082.730
484.7900, 1099.730
485.9750, 1227.617
487.1600, 1547.395
488.3450, 1616.051
489.5290, 1975.598
490.7140, 2065.023
491.8980, 2397.340
493.0820, 2680.539
494.2660, 3151.621
495.4500, 3357.590
496.6340, 3644.441
497.8170, 3795.176
499.0010, 4190.793
500.1840, 4661.305
501.3670, 5022.699
502.5500, 5299.984
503.7320, 5720.152
504.9150, 6000.512
506.0970, 6359.160
507.2790, 6637.984
508.4610, 7081.703
509.6430, 7468.305
510.8250, 7742.480
512.0060, 7935.160
513.1870, 8327.414
514.3680, 8818.562
515.5490, 9153.590
516.7300, 9596.496
517.9110, 9963.289
519.0910, 10227.97
520.2710, 10749.53
521.4510, 11308.98
522.6310, 11451.30
523.8110, 12181.52
524.9910, 12545.62
526.1700, 13234.60
527.3490, 13341.46
528.5280, 13584.21
529.7070, 13710.84
530.8860, 14024.36
532.0650, 13776.75
533.2430, 13950.02
534.4210, 13826.19
535.5990, 13320.23
536.7770, 13163.15
537.9550, 12976.98
539.1320, 12603.74
540.3100, 12356.48
541.4870, 11855.14
542.6640, 11589.71
543.8410, 11303.16
545.0170, 10783.55
546.1940, 10613.85
547.3700, 10351.05
548.5470, 10297.16
549.7230, 9791.156
550.8980, 9459.055
552.0740, 9354.836
553.2500, 8874.539
554.4250, 8611.125
555.6000, 8650.586
556.7750, 8547.980
557.9500, 8059.262
559.1250, 7959.496
560.2990, 7888.703
561.4730, 7381.863
562.6480, 7078.012
563.8220, 6928.141
564.9950, 6413.191
566.1690, 5946.250
567.3430, 5614.273
568.5160, 5576.305
569.6890, 5208.316
570.8620, 4978.277
572.0350, 4565.156
573.2070, 4637.992
574.3800, 3831.730
575.5520, 3603.355
576.7240, 2922.898
577.8960, 3121.324
579.0680, 2759.641
580.2400, 2402.844
581.4110, 2256.938
582.5830, 2071.914
583.7540, 1804.781
584.9250, 1533.535
586.0950, 1401.180
587.2660, 1146.711
588.4370, 899.1289
589.6070, 860.8594
590.7770, 652.8281
591.9470, 452.4883
593.1170, 303.1953
594.2860, 165.8828
595.4560, 187.9453
596.6250, 226.9922
597.7940, 111.7617
598.9630, 446.0273
600.1320, 116.4492
601.3000, 215.9531
602.4690, 201.0273
603.6370, 408.4648
604.8050, 280.7305
605.9730, 250.5703
607.1410, 563.4102
608.3090, 442.6562
609.4760, 443.5000
610.6430, 157.5508
611.8100, 86.77734
612.9770, 60.72656
614.1440, 35.67578
615.3110, 119.3789
616.4770, 314.8086
617.6430, 268.3594
618.8090, 376.4688
619.9750, 457.4336
621.1410, 687.2812
622.3070, 872.7656
623.4720, 1149.328
624.6370, 1166.090
625.8020, 1527.770
626.9670, 1748.137
628.1320, 2096.766
629.2970, 2316.336
630.4610, 2787.703
631.6250, 3076.000
632.7890, 3136.211
633.9530, 3417.352
635.1170, 4143.414
636.2810, 4098.406
637.4440, 4243.328
638.6070, 5025.180
639.7700, 5043.957
640.9330, 5451.660
642.0960, 5498.297
643.2590, 6117.867
644.4210, 6336.359
645.5830, 6689.789
646.7450, 7150.152
647.9070, 7252.453
649.0690, 7536.688
650.2310, 7834.855
651.3920, 8298.957
652.5530, 8569.004
653.7140, 9072.977
654.8750, 9172.895
656.0360, 9561.750
657.1970, 9759.551
658.3570, 9893.305
659.5170, 10078.13
660.6770, 10057.59
661.8370, 10243.16
662.9970, 10137.66
664.1570, 10146.12
665.3160, 9864.516
666.4750, 9352.859
667.6340, 9571.152
668.7930, 8947.398
669.9520, 8980.594
671.1110, 9175.730
672.2690, 9036.824
673.4270, 9287.867
674.5850, 9560.867
675.7430, 9597.816
676.9010, 9973.727
678.0590, 10199.59
679.2160, 10045.40
680.3730, 10459.17
681.5300, 10185.89
682.6870, 9881.582
683.8440, 9843.227
685.0010, 9327.824
686.1570, 8935.391
687.3130, 8614.914
688.4690, 8158.398
689.6250, 7787.844
690.7810, 7366.723
691.9370, 6550.418
693.0920, 6583.758
694.2470, 6289.066
695.4020, 6067.270
696.5570, 6182.758
697.7120, 6125.484
698.8670, 6399.250
700.0210, 6564.031
701.1750, 6723.473
702.3290, 7166.125
703.4830, 7473.301
704.6370, 7683.227
705.7910, 8547.551
706.9440, 8747.094
708.0970, 9407.832
709.2510, 9775.945
710.4030, 10000.72
711.5560, 10719.70
712.7090, 11403.69
713.8610, 11657.41
715.0140, 12376.35
716.1660, 12685.00
717.3180, 12976.62
718.4690, 13655.21
719.6210, 14159.77
720.7730, 14441.30
721.9240, 14966.80
723.0750, 15002.27
724.2260, 15320.72
725.3770, 15847.14
726.5270, 15902.11
727.6780, 15652.45
728.8280, 16104.20
729.9780, 16236.06
731.1280, 15938.35
732.2780, 16192.47
733.4280, 16141.41
734.5770, 16046.22
735.7260, 16008.57
736.8760, 15747.34
738.0250, 15528.16
739.1730, 15200.71
740.3220, 14798.69
741.4700, 14369.96
742.6190, 13909.78
743.7670, 13115.98
744.9150, 12628.53
746.0630, 11795.91
747.2100, 10973.35
748.3580, 10982.28
749.5050, 9845.441
750.6520, 9394.531
751.7990, 8721.762
752.9460, 7935.094
754.0930, 7639.766
755.2390, 7013.262
756.3860, 6517.418
757.5320, 6119.793
758.6780, 5771.980
759.8240, 5497.492
760.9690, 5290.379
762.1150, 5110.305
763.2600, 4909.270
764.4060, 4718.273
765.5510, 4480.320
766.6950, 4593.406
767.8400, 4655.535
768.9850, 4543.707
770.1290, 4286.918
771.2730, 4490.188
772.4170, 4369.488
773.5610, 4401.848
774.7050, 4333.250
775.8480, 4488.699
776.9920, 3908.203
778.1350, 4264.754
779.2780, 4054.355
780.4210, 3875.012
781.5640, 4013.715
782.7060, 4037.480
783.8490, 3835.297
784.9910, 3883.172
786.1330, 3744.102
787.2750, 3661.086
788.4170, 3569.133
789.5580, 3435.672
790.7000, 3345.406
791.8410, 3204.633
792.9820, 2976.922
794.1230, 2890.957
795.2640, 2839.043
796.4040, 2810.176
797.5450, 2829.723
798.6850, 2892.340
799.8250, 2900.016
800.9650, 2982.762
802.1050, 2912.578
803.2450, 2568.465
804.3840, 2688.422
805.5230, 2586.445
806.6630, 2158.539
807.8020, 2061.707
808.9400, 2218.953
810.0790, 2338.270
811.2170, 2034.656
812.3560, 1839.121
813.4940, 1866.660
814.6320, 1726.273
815.7700, 1760.965
816.9070, 1606.734
818.0450, 1749.582
819.1820, 1421.508
820.3190, 1137.508
821.4560, 1028.594
822.5930, 1017.758
823.7300, 482.0000
824.8670, 742.3242
826.0030, 215.7344
827.1390, 119.2266
828.2750, 153.1992
829.4110, 67.40234
830.5470, 77.08594
831.6820, 206.1445
832.8180, 8.628906
833.9530, 374.5195
835.0880, 436.7227
836.2230, 357.0156
837.3580, 533.3516
838.4920, 459.8125
839.6270, 216.3594
840.7610, 627.8984
841.8950, 419.5977
843.0290, 625.3633
844.1630, 472.2852
845.2960, 358.2930
846.4300, 171.3438
847.5630, 360.3672
848.6960, 101.4219
849.8290, 162.5781
850.9620, 184.3281
852.0940, 128.8008
853.2270, 49.01953
854.3590, 194.3320
855.4910, 433.7500
856.6230, 484.2578
857.7550, 381.8633
858.8870, 660.5703
860.0180, 568.3750
861.1500, 622.2773
862.2810, 683.2812
863.4120, 879.3828
864.5430, 903.5898
865.6730, 1024.211
866.8040, 1159.582
867.9340, 1254.859
869.0640, 1356.527
870.1940, 1434.074
871.3240, 1550.363
872.4540, 1586.633
873.5830, 1695.121
874.7130, 1825.902
875.8420, 1973.922
876.9710, 1773.188
878.1000, 2145.703
879.2290, 1905.531
880.3570, 2092.609
881.4860, 2012.945
882.6140, 2077.625
883.7420, 2119.594
884.8700, 2157.906
885.9980, 2129.430
887.1250, 2361.152
888.2530, 2294.023
889.3800, 2270.090
890.5070, 2245.316
891.6340, 2130.727
892.7610, 2508.254
893.8880, 2513.973
895.0140, 2574.914
896.1400, 2605.953
897.2670, 2503.137
898.3930, 2489.395
899.5180, 2689.285
900.6440, 2804.320
901.7700, 2839.008
902.8950, 2552.273
904.0200, 2680.848
905.1450, 2643.207
906.2700, 2598.879
907.3950, 2786.336
908.5190, 2547.031
909.6440, 2731.086
910.7680, 2746.355
911.8920, 2839.047
913.0160, 2764.398
914.1400, 2741.602
915.2630, 2886.438
916.3870, 2938.664
917.5100, 2845.297
918.6330, 2943.688
919.7560, 2699.883
920.8790, 2756.617
922.0010, 2943.109
923.1240, 2858.844
924.2460, 2960.992
925.3680, 2992.363
926.4900, 2701.465
927.6120, 2971.344
928.7340, 2998.871
929.8550, 2777.539
930.9760, 3028.598
932.0980, 2841.848
933.2190, 2811.508
934.3390, 2898.922
935.4600, 3053.391
936.5810, 3000.285
937.7010, 2879.309
938.8210, 3163.430
939.9410, 2818.648
941.0610, 3097.977
942.1810, 2710.410
943.3010, 3090.945
944.4200, 3107.578
945.5390, 2976.312
946.6580, 2879.148
947.7770, 3149.078
948.8960, 3051.102
950.0150, 3189.223
951.1330, 3097.438
952.2510, 3147.750
953.3690, 3132.160
954.4870, 3033.664
955.6050, 3008.266
956.7230, 3122.953
957.8400, 3145.738
958.9580, 3326.613
960.0750, 3136.582
961.1920, 3206.641
962.3090, 3092.793
963.4250, 3352.238
964.5420, 3333.871
965.6580, 3362.641
966.7740, 3453.582
967.8900, 3371.934
969.0060, 3369.098
970.1220, 3309.289
971.2380, 3422.836
972.3530, 3267.141
973.4680, 3594.613
974.5830, 3595.617
975.6980, 3461.930
976.8130, 3844.902
977.9280, 3741.711
979.0420, 3616.387
980.1560, 3943.750
981.2710, 4096.508
982.3850, 4015.406
983.4980, 4578.797
984.6120, 4036.801
985.7260, 4356.648
986.8390, 4611.840
987.9520, 4669.125
989.0650, 4579.508
990.1780, 4868.992
991.2910, 5036.578
992.4030, 4913.254
993.5160, 5266.027
994.6280, 5154.895
995.7400, 5444.852
996.8520, 5643.898
997.9640, 5748.039
999.0750, 5904.266
1000.187, 6008.582
1001.298, 5656.176
1002.409, 6008.660
1003.520, 5876.234
1004.631, 6357.895
1005.741, 6272.641
1006.852, 6458.418
1007.962, 6469.852
1009.072, 6711.375
1010.182, 6885.188
1011.292, 6381.262
1012.402, 6537.305
1013.511, 6407.484
1014.621, 6286.594
1015.730, 6345.258
1016.839, 6186.234
1017.948, 6373.734
1019.056, 6051.789
1020.165, 6086.195
1021.273, 6121.191
1022.382, 5913.816
1023.490, 6149.070
1024.598, 5873.102
1025.706, 5790.371
1026.813, 5557.430
1027.921, 5781.098
1029.028, 5542.344
1030.135, 5374.129
1031.242, 5722.137
1032.349, 5735.145
1033.456, 5179.328
1034.562, 5086.109
1035.668, 5131.582
1036.775, 5115.094
1037.881, 5118.688
1038.987, 5114.359
1040.092, 5040.129
1041.198, 5004.477
1042.303, 4987.301
1043.408, 4810.141
1044.514, 4878.145
1045.618, 4881.391
1046.723, 4630.629
1047.828, 4722.098
1048.932, 4585.113
1050.037, 4425.641
1051.141, 4526.023
1052.245, 4313.816
1053.349, 4249.195
1054.452, 4301.773
1055.556, 4370.664
1056.659, 4087.156
1057.762, 4116.289
1058.865, 3982.266
1059.968, 4121.570
1061.071, 4277.723
1062.174, 4050.734
1063.276, 3778.023
1064.378, 4014.832
1065.480, 3848.910
1066.582, 3932.934
1067.684, 3774.820
1068.786, 3760.852
1069.887, 3461.645
1070.988, 3930.145
1072.090, 3634.266
1073.191, 3342.020
1074.291, 3558.500
1075.392, 3306.934
1076.493, 3366.805
1077.593, 3094.270
1078.693, 3458.301
1079.793, 3135.418
1080.893, 3172.879
1081.993, 3096.117
1083.092, 3045.727
1084.192, 2725.047
1085.291, 2821.137
1086.390, 2655.812
1087.489, 2647.863
1088.588, 2594.922
1089.686, 2427.961
1090.785, 2547.191
1091.883, 2175.266
1092.981, 2047.512
1094.079, 2090.961
1095.177, 2175.535
1096.275, 1703.020
1097.373, 1783.516
1098.470, 1680.473
1099.567, 1661.449
1100.664, 1555.406
1101.761, 1443.551
1102.858, 1267.500
1103.954, 1221.723
1105.051, 1008.000
1106.147, 1160.027
1107.243, 1226.777
1108.339, 1213.133
1109.435, 877.9883
1110.531, 958.1641
1111.626, 872.2539
1112.722, 779.7461
1113.817, 919.0625
1114.912, 631.6016
1116.007, 766.7266
1117.101, 733.4180
1118.196, 776.9180
1119.290, 653.0078
1120.385, 582.3281
1121.479, 679.2422
1122.573, 682.7656
1123.666, 540.4414
1124.760, 589.2266
1125.853, 295.8750
1126.947, 302.7617
1128.040, 439.1445
1129.133, 304.1328
1130.226, 355.3516
1131.318, 335.6211
1132.411, 6.585938
1133.503, 211.8594
1134.596, 20.67578
1135.688, 25.21484
1136.780, 38.14453
1137.871, 30.26172
1138.963, 2.941406
1140.054, 64.67578
1141.146, 64.91797
1142.237, 48.70312
1143.328, 91.70703
1144.419, 9.871094
1145.509, 52.37109
1146.600, 41.10547
1147.690, 18.75391
1148.780, 196.6758
1149.870, 13.21875
1150.960, 11.03516
1152.050, 28.31250
1153.139, 128.0234
1154.229, 54.52344
1155.318, 190.7305
1156.407, 116.3164
1157.496, 247.5547
1158.585, 349.2773
1159.674, 183.3359
1160.762, 57.50000
1161.850, 26.08984
1162.939, 245.7930
1164.027, 229.5703
1165.114, 60.72656
1166.202, 36.99609
1167.290, 248.8008
1168.377, 176.5000
1169.464, 66.20703
1170.551, 77.92969
1171.638, 52.80469
1172.725, 9.906250
1173.812, 103.1289
1174.898, 238.4727
1175.984, 197.0000
1177.071, 51.45312
1178.157, 135.2031
1179.242, 38.94531
1180.328, 19.96875
1181.414, 79.07812
1182.499, 115.3672
1183.584, 249.1523
1184.669, 75.91406
1185.754, 61.34766
1186.839, 86.50000
1187.924, 158.5391
1189.008, 210.2031
1190.092, 61.85938
1191.177, 100.4023
1192.260, 109.8359
1193.344, 88.83203
1194.428, 254.7070
1195.512, 231.4570
1196.595, 35.18359
1197.678, 261.0195
1198.761, 61.03906
1199.844, 45.76562
1200.927, 348.8672
1202.009, 453.2148
1203.092, 150.4922
1204.174, 229.6602
1205.256, 236.2578
1206.338, 207.2617
1207.420, 381.3594
1208.502, 282.5898
1209.583, 493.3008
1210.665, 391.6953
1211.746, 447.2461
1212.827, 361.7148
1213.908, 267.0938
1214.988, 576.3828
1216.069, 350.6602
1217.149, 299.7812
1218.230, 558.8125
1219.310, 560.7539
1220.390, 460.6172
1221.470, 497.8320
1222.549, 456.7695
1223.629, 409.3789
1224.708, 377.7734
1225.787, 406.3281
1226.866, 273.6641
1227.945, 618.6484
1229.024, 628.8008
1230.103, 707.8750
1231.181, 691.2812
1232.259, 556.2695
1233.337, 521.4180
1234.415, 480.6484
1235.493, 492.4727
1236.571, 639.0820
1237.648, 619.9062
1238.726, 604.7227
1239.803, 678.6836
1240.880, 512.9727
1241.957, 462.0352
1243.034, 441.4219
1244.110, 420.6289
1245.187, 601.3984
1246.263, 457.1250
1247.339, 631.6758
1248.415, 600.2148
1249.491, 314.6719
1250.566, 309.0117
1251.642, 383.6836
1252.717, 399.1914
1253.793, 485.2695
1254.868, 437.2070
1255.943, 464.2852
1257.017, 497.1523
1258.092, 625.1523
1259.166, 778.8789
1260.241, 711.7344
1261.315, 839.7383
1262.389, 638.8281
1263.462, 513.0156
1264.536, 531.1133
1265.610, 365.5977
1266.683, 472.0117
1267.756, 353.0117
1268.829, 352.3203
1269.902, 722.3984
1270.975, 640.9492
1272.048, 705.3086
1273.120, 512.2070
1274.192, 575.5664
1275.264, 621.9805
1276.336, 360.8164
1277.408, 647.7695
1278.480, 619.2695
1279.551, 731.6484
1280.623, 453.6797
1281.694, 703.0703
1282.765, 809.9766
1283.836, 470.0547
1284.907, 357.5000
1285.977, 716.6094
1287.048, 449.7891
1288.118, 611.3320
1289.188, 369.2734
1290.258, 517.6445
1291.328, 559.7539
1292.398, 453.0000
1293.467, 563.8750
1294.537, 455.1250
1295.606, 402.6445
1296.675, 408.0977
1297.744, 489.4336
1298.813, 445.4766
1299.882, 381.5703
1300.950, 481.3789
1302.018, 442.1602
1303.086, 596.9219
1304.155, 519.6406
1305.222, 549.2891
1306.290, 434.7031
1307.358, 510.8477
1308.425, 373.4062
1309.492, 522.4180
1310.559, 786.5391
1311.626, 535.2109
1312.693, 236.2578
1313.760, 444.0586
1314.826, 519.5195
1315.893, 725.3359
1316.959, 399.4727
1318.025, 319.7266
1319.091, 388.6328
1320.157, 552.6367
1321.222, 314.7461
1322.288, 192.5234
1323.353, 120.7305
1324.418, 111.6797
1325.483, 295.5234
1326.548, 232.5117
1327.612, 209.3086
1328.677, 102.8203
1329.741, 294.5664
1330.806, 401.5625
1331.870, 425.3945
1332.934, 128.8906
1333.997, 247.6016
1335.061, 199.4297
1336.124, 145.7812
1337.188, 323.1875
1338.251, 74.54688
1339.314, 248.7344
1340.377, 254.1406
1341.439, 336.4492
1342.502, 250.5664
1343.564, 217.5586
1344.627, 351.3945
1345.689, 392.0430
1346.751, 287.8906
1347.813, 375.3164
1348.874, 120.1016
1349.936, 165.3945
1350.997, 340.0195
1352.058, 243.5039
1353.119, 333.0352
1354.180, 351.7188
1355.241, 46.91016
1356.301, 304.2695
1357.362, 319.0977
1358.422, 84.92969
1359.482, 322.9414
1360.542, 122.9922
1361.602, 79.19922
1362.662, 152.8281
1363.721, 103.8164
1364.781, 248.3438
1365.840, 206.5781
1366.899, 148.1406
1367.958, 162.2656
1369.017, 29.62109
1370.075, 159.9727
1371.134, 88.64062
1372.192, 146.8008
1373.250, 234.9492
1374.308, 147.4844
1375.366, 285.0234
1376.424, 8.511719
1377.481, 217.3164
1378.539, 143.9688
1379.596, 68.32422
1380.653, 13.29688
1381.710, 188.4727
1382.767, 21.00000
1383.824, 116.6016
1384.880, 60.30078
1385.937, 100.4414
1386.993, 177.5547
1388.049, 129.6406
1389.105, 135.6953
1390.161, 201.7305
1391.216, 182.3047
1392.272, 297.9297
1393.327, 310.5742
1394.382, 84.89062
1395.437, 86.39844
1396.492, 138.8789
1397.547, 71.21875
1398.601, 114.6797
1399.656, 46.57422
1400.710, 163.0898
1401.764, 192.8672
1402.818, 182.7773
1403.872, 347.5156
1404.925, 432.4375
1405.979, 188.4023
1407.032, 78.37109
1408.085, 240.7891
1409.139, 38.75000
1410.191, 130.7500
1411.244, 39.64062
1412.297, 48.58594
1413.349, 293.6523
1414.402, 285.4258
1415.454, 222.6758
1416.506, 120.3125
1417.558, 173.3242
1418.609, 95.10547
1419.661, 247.1250
1420.712, 89.58594
1421.764, 119.0508
1422.815, 273.3633
1423.866, 135.7031
1424.916, 249.3242
1425.967, 33.00391
1427.018, 12.47656
1428.068, 45.21484
1429.118, 34.86328
1430.168, 300.8555
1431.218, 3.277344
1432.268, 222.6250
1433.318, 287.5664
1434.367, 286.6016
1435.416, 418.7148
1436.465, 170.8711
1437.514, 425.1250
1438.563, 98.49219
1439.612, 527.4180
1440.661, 212.9453
1441.709, 230.6797
1442.757, 219.4219
1443.805, 314.6484
1444.853, 131.4453
1445.901, 492.5859
1446.949, 537.6719
1447.996, 274.3789
1449.044, 562.0352
1450.091, 422.0000
1451.138, 281.3281
1452.185, 598.5820
1453.232, 488.2930
1454.278, 420.3125
1455.325, 547.1055
1456.371, 309.5078
1457.417, 621.7148
1458.463, 512.8359
1459.509, 372.0273
1460.555, 533.2070
1461.601, 442.6016
1462.646, 326.7578
1463.691, 207.9141
1464.737, 232.7812
1465.782, 177.6094
1466.826, 374.4336
1467.871, 485.7812
1468.916, 516.9883
1469.960, 226.8906
1471.004, 349.6250
1472.048, 307.9609
1473.092, 259.9102
1474.136, 432.2930
1475.180, 187.7617
1476.223, 356.2891
1477.267, 365.9102
1478.310, 452.4141
1479.353, 372.6211
1480.396, 345.2031
1481.439, 485.3203
1482.481, 532.7148
1483.524, 434.2461
1484.566, 527.4570
1485.608, 274.4766
1486.650, 325.5938
1487.692, 506.6992
1488.734, 416.9688
1489.775, 513.4609
1490.817, 538.8516
1491.858, 240.2930
1492.899, 504.1055
1493.940, 525.6328
1494.981, 599.7734
1496.022, 271.0117
1497.062, 505.4102
1498.103, 286.8320
1499.143, 363.8633
1500.183, 516.0586
1501.223, 210.0195
1502.263, 308.0664
1503.302, 414.5078
1504.342, 113.9531
1505.381, 148.3906
1506.420, 257.8320
1507.459, 298.2539
1508.498, 356.6328
1509.537, 244.9727
1510.576, 62.33984
1511.614, 368.7305
1512.652, 95.13281
1513.691, 174.5469
1514.729, 690.9727
1515.767, 362.4102
1516.804, 321.8438
1517.842, 278.2930
1518.879, 200.7617
1519.917, 447.2773
1520.954, 191.8047
1521.991, 272.4102
1523.028, 200.1641
1524.064, 70.23047
1525.101, 400.5273
1526.137, 67.91016
1527.173, 300.3438
1528.210, 137.8398
1529.245, 256.5000
1530.281, 284.2266
1531.317, 305.0195
1532.352, 216.9375
1533.388, 168.9648
1534.423, 353.7148
1535.458, 453.5234
1536.493, 472.9883
1537.528, 171.0430
1538.562, 284.4453
1539.597, 231.5781
1540.631, 172.0352
1541.665, 344.3359
1542.700, 89.91797
1543.733, 258.9219
1544.767, 259.2031
1545.801, 337.0586
1546.834, 247.7500
1547.868, 210.4375
1548.901, 340.8945
1549.934, 378.9102
1550.967, 271.5117
1551.999, 356.0977
1553.032, 98.69531
1554.064, 142.1484
1555.097, 315.6719
1556.129, 218.8203
1557.161, 308.7891
1558.193, 328.4570
1559.224, 26.46484
1560.256, 285.9258
1561.287, 303.8242
1562.318, 73.80469
1563.350, 317.2383
1564.380, 124.2305
1565.411, 87.52734
1566.442, 323.7109
1567.472, 81.19922
1568.503, 3.160156
1569.533, 178.8477
1570.563, 0.0000000E+00
##END=



