##NAMES=Magnesio-hastingsite
##RRUFFID=R040010
##IDEAL CHEMISTRY=NaCa_2_(Mg_4_Fe^3+^)Si_6_Al_2_O_22_(OH)_2_
##LOCALITY=Amity, New York, USA
##OWNER=RRUFF
##SOURCE=University of Arizona Mineral Museum
##DESCRIPTION=Group of black prismatic crystals
##STATUS=The identification of this mineral has been confirmed by X-ray diffraction and chemical analysis
##URL=rruff.info/R040010
##MEASURED CHEMISTRY=(Na_0.50_K_0.43_[box]_0.07_)_Σ=1_(Ca_1.77_Na_0.23_)_Σ=2_(Mg_1.74_Fe_1.22_Fe^3+^_0.79_Mn_0.57_Al_0.30_Zn_0.25_Ti_0.13_)_Σ=5_(Si_5.95_Al_2.05_)_Σ=8_O_22_((OH)_1.75_F_0.22_Cl_0.03_)_Σ=2_; OH estimated by charge balance
##PIN_ID=L00198
##ORIENTATION=Laser parallel to c [0 0 1]. Fiducial mark perpendicular to laser is parallel to -b* (0 -1 0)
132.5420, 0.0000000E+00
133.7780, 10.89258
135.0140, 164.9219
136.2500, 205.7910
137.4850, 436.8223
138.7200, 1240.213
139.9550, 2272.670
141.1900, 2618.137
142.4250, 3295.252
143.6600, 4604.320
144.8940, 5560.838
146.1280, 7007.174
147.3620, 9034.713
148.5960, 10790.89
149.8300, 11661.21
151.0630, 13282.59
152.2960, 13692.92
153.5300, 13475.63
154.7620, 12895.46
155.9950, 11391.09
157.2280, 9167.191
158.4600, 7088.480
159.6920, 5049.701
160.9250, 3602.641
162.1560, 2517.105
163.3880, 1869.928
164.6200, 1119.953
165.8510, 506.0508
167.0820, 176.1309
168.3130, 70.20117
169.5440, 198.8066
170.7750, 172.0684
172.0050, 84.75000
173.2350, 81.98438
174.4650, 182.8828
175.6950, 26.46875
176.9250, 146.9902
178.1550, 209.6211
179.3840, 513.3008
180.6130, 700.9805
181.8420, 497.6191
183.0710, 625.1836
184.3000, 770.6387
185.5280, 932.9590
186.7570, 1022.117
187.9850, 907.0879
189.2130, 963.8438
190.4400, 1018.363
191.6680, 941.6250
192.8960, 1121.424
194.1230, 1092.279
195.3500, 1421.635
196.5770, 1559.650
197.8030, 1725.311
199.0300, 2252.598
200.2560, 2815.738
201.4830, 3562.287
202.7090, 4112.482
203.9340, 3600.920
205.1600, 3404.807
206.3860, 3878.955
207.6110, 4885.871
208.8360, 5924.703
210.0610, 7137.535
211.2860, 8802.424
212.5100, 10530.41
213.7350, 12335.52
214.9590, 13981.66
216.1830, 15628.22
217.4070, 17208.85
218.6310, 18977.67
219.8540, 20290.72
221.0780, 21506.01
222.3010, 21784.55
223.5240, 22239.37
224.7470, 22010.45
225.9690, 21162.77
227.1920, 20300.34
228.4140, 18664.22
229.6360, 17193.42
230.8580, 15438.94
232.0800, 13860.79
233.3020, 11940.96
234.5230, 11018.47
235.7440, 9656.316
236.9650, 8547.488
238.1860, 7945.959
239.4070, 7328.736
240.6280, 6558.811
241.8480, 6171.182
243.0680, 5632.844
244.2880, 5501.797
245.5080, 4964.023
246.7280, 4836.537
247.9470, 4708.320
249.1660, 4443.373
250.3860, 4319.695
251.6040, 4266.277
252.8230, 4158.123
254.0420, 4222.223
255.2600, 4067.574
256.4790, 4144.178
257.6970, 4841.023
258.9150, 4573.037
260.1320, 4674.020
261.3500, 4579.986
262.5670, 4459.771
263.7840, 4489.783
265.0010, 4471.018
266.2180, 4817.928
267.4350, 4892.027
268.6510, 4990.934
269.8680, 5655.637
271.0840, 5662.613
272.3000, 5986.602
273.5160, 6595.092
274.7310, 6862.943
275.9470, 7210.641
277.1620, 7622.523
278.3770, 7607.586
279.5920, 8370.734
280.8070, 8432.859
282.0210, 9007.695
283.2360, 9241.879
284.4500, 9330.182
285.6640, 9678.445
286.8780, 9736.551
288.0920, 9776.416
289.3050, 9827.945
290.5180, 9858.072
291.7320, 9591.754
292.9450, 9752.965
294.1570, 9279.674
295.3700, 9173.859
296.5830, 8825.488
297.7950, 8460.422
299.0070, 8322.633
300.2190, 7971.139
301.4310, 7688.844
302.6420, 7473.428
303.8540, 7095.236
305.0650, 6836.463
306.2760, 6573.117
307.4870, 6288.568
308.6980, 6027.773
309.9080, 5820.854
311.1190, 5564.379
312.3290, 5397.395
313.5390, 5068.881
314.7490, 4736.854
315.9580, 4869.699
317.1680, 4316.633
318.3770, 4208.719
319.5860, 3778.258
320.7950, 3639.170
322.0040, 3570.359
323.2130, 3506.801
324.4210, 3233.498
325.6290, 3160.412
326.8380, 3251.543
328.0460, 3032.611
329.2530, 3082.852
330.4610, 2885.039
331.6680, 3037.889
332.8760, 3140.914
334.0830, 3096.098
335.2890, 2942.643
336.4960, 3003.148
337.7030, 3110.812
338.9090, 3402.711
340.1150, 3406.672
341.3210, 3639.781
342.5270, 3707.029
343.7330, 3878.418
344.9380, 4260.941
346.1440, 4145.594
347.3490, 4667.373
348.5540, 4350.270
349.7590, 4572.277
350.9630, 4783.391
352.1680, 4813.613
353.3720, 4971.945
354.5760, 5145.381
355.7800, 5074.928
356.9840, 5228.584
358.1870, 5081.346
359.3910, 5229.215
360.5940, 5253.188
361.7970, 5124.268
363.0000, 4892.449
364.2030, 4787.734
365.4050, 4606.121
366.6080, 4386.607
367.8100, 4255.189
369.0120, 3964.869
370.2140, 4049.648
371.4150, 3783.520
372.6170, 3415.484
373.8180, 3486.539
375.0190, 3245.686
376.2200, 3059.916
377.4210, 2802.238
378.6220, 2576.641
379.8220, 2362.127
381.0230, 2176.695
382.2230, 1981.340
383.4230, 1697.062
384.6220, 1626.861
385.8220, 1572.736
387.0220, 1420.680
388.2210, 927.6992
389.4200, 724.7832
390.6190, 754.9375
391.8180, 419.1562
393.0160, 348.4414
394.2150, 137.7891
395.4130, 109.1973
396.6110, 24.66602
397.8090, 122.8086
399.0060, 247.2441
400.2040, 105.6699
401.4010, 392.0566
402.5980, 179.4609
403.7950, 312.8457
404.9920, 303.2324
406.1890, 461.6250
407.3860, 430.0566
408.5820, 199.5156
409.7780, 261.9668
410.9740, 359.4473
412.1700, 374.0156
413.3650, 80.27734
414.5610, 107.4980
415.7560, 79.57422
416.9510, 323.5996
418.1460, 260.5312
419.3410, 720.4805
420.5360, 691.4727
421.7300, 817.5039
422.9240, 1075.574
424.1180, 1321.750
425.3120, 1434.061
426.5060, 1640.477
427.7000, 1634.994
428.8930, 1665.604
430.0860, 1751.332
431.2790, 1845.088
432.4720, 1810.959
433.6650, 1742.906
434.8580, 1719.932
436.0500, 1595.818
437.2420, 1563.678
438.4340, 1273.436
439.6260, 1479.736
440.8180, 1195.104
442.0090, 1192.924
443.2010, 1028.820
444.3920, 825.5879
445.5830, 749.8867
446.7740, 695.8984
447.9640, 692.9395
449.1550, 716.8086
450.3450, 679.6855
451.5350, 757.2676
452.7250, 740.8262
453.9150, 712.8086
455.1050, 602.4551
456.2940, 593.7148
457.4830, 620.0801
458.6720, 799.8516
459.8610, 603.7344
461.0500, 577.9512
462.2390, 819.1797
463.4270, 562.5684
464.6150, 575.8711
465.8040, 447.1816
466.9910, 650.1914
468.1790, 773.6152
469.3670, 495.0078
470.5540, 708.0098
471.7410, 605.9961
472.9280, 593.9688
474.1150, 692.9238
475.3020, 364.8613
476.4890, 613.7852
477.6750, 133.6992
478.8610, 370.5547
480.0470, 288.3887
481.2330, 280.1973
482.4190, 557.9766
483.6040, 346.7305
484.7900, 397.4590
485.9750, 404.1582
487.1600, 689.8320
488.3450, 741.4707
489.5290, 706.0820
490.7140, 1068.658
491.8980, 1112.207
493.0820, 1073.717
494.2660, 1342.193
495.4500, 2359.635
496.6340, 1990.979
497.8170, 2196.828
499.0010, 1947.738
500.1840, 2002.029
501.3670, 2197.281
502.5500, 2398.492
503.7320, 2608.660
504.9150, 2725.459
506.0970, 2662.871
507.2790, 2957.910
508.4610, 3094.904
509.6430, 3233.854
510.8250, 3614.756
512.0060, 3847.611
513.1870, 3857.418
514.3680, 4250.176
515.5490, 4411.885
516.7300, 4564.541
517.9110, 5033.148
519.0910, 5429.705
520.2710, 5635.205
521.4510, 6334.652
522.6310, 6652.045
523.8110, 7273.383
524.9910, 7685.668
526.1700, 8406.895
527.3490, 8669.062
528.5280, 9515.174
529.7070, 9783.229
530.8860, 9987.223
532.0650, 10267.15
533.2430, 10607.03
534.4210, 10541.05
535.5990, 10854.59
536.7770, 10412.28
537.9550, 9912.906
539.1320, 9802.467
540.3100, 9024.883
541.4870, 8702.451
542.6640, 8455.227
543.8410, 7907.293
545.0170, 7556.131
546.1940, 7216.379
547.3700, 6710.887
548.5470, 6419.076
549.7230, 6024.072
550.8980, 5542.984
552.0740, 5334.664
553.2500, 4859.904
554.4250, 4500.320
555.6000, 4184.986
556.7750, 3900.418
557.9500, 3788.051
559.1250, 3434.652
560.2990, 3277.248
561.4730, 2987.844
562.6480, 2747.400
563.8220, 2608.977
564.9950, 2550.516
566.1690, 2279.084
567.3430, 2204.650
568.5160, 1986.252
569.6890, 1758.857
570.8620, 1630.467
572.0350, 1537.826
573.2070, 1457.643
574.3800, 1426.176
575.5520, 1202.678
576.7240, 1072.115
577.8960, 953.5059
579.0680, 896.8398
580.2400, 656.1152
581.4110, 718.3164
582.5830, 582.4434
583.7540, 323.4824
584.9250, 421.3945
586.0950, 1.804688
587.2660, 21.74805
588.4370, 42.06055
589.6070, 49.85742
590.7770, 95.05273
591.9470, 390.5508
593.1170, 467.5137
594.2860, 280.9766
595.4560, 496.8496
596.6250, 441.2422
597.7940, 553.1270
598.9630, 303.5625
600.1320, 256.4219
601.3000, 292.6758
602.4690, 292.3496
603.6370, 55.44141
604.8050, 26.17383
605.9730, 212.5391
607.1410, 164.7246
608.3090, 428.7168
609.4760, 385.5840
610.6430, 936.3125
611.8100, 939.9551
612.9770, 1316.516
614.1440, 1633.559
615.3110, 2132.377
616.4770, 2185.223
617.6430, 2655.506
618.8090, 2783.445
619.9750, 3364.492
621.1410, 3812.455
622.3070, 4340.246
623.4720, 4860.037
624.6370, 5549.742
625.8020, 6017.363
626.9670, 6679.898
628.1320, 7533.352
629.2970, 7792.715
630.4610, 8855.996
631.6250, 9423.191
632.7890, 9850.305
633.9530, 10498.33
635.1170, 10989.28
636.2810, 11909.14
637.4440, 12330.91
638.6070, 13154.60
639.7700, 13559.05
640.9330, 14017.73
642.0960, 14517.17
643.2590, 14525.53
644.4210, 15375.80
645.5830, 15371.99
646.7450, 16095.10
647.9070, 16202.12
649.0690, 16679.07
650.2310, 17052.92
651.3920, 17323.71
652.5530, 17784.40
653.7140, 18368.02
654.8750, 18483.55
656.0360, 18944.01
657.1970, 19161.38
658.3570, 19372.68
659.5170, 19283.88
660.6770, 19388.02
661.8370, 18633.07
662.9970, 18022.04
664.1570, 17600.94
665.3160, 16834.76
666.4750, 16042.49
667.6340, 15459.15
668.7930, 14371.74
669.9520, 14002.24
671.1110, 13293.67
672.2690, 12960.02
673.4270, 12459.29
674.5850, 12277.49
675.7430, 12206.61
676.9010, 12064.66
678.0590, 12018.63
679.2160, 11954.35
680.3730, 12168.38
681.5300, 11694.19
682.6870, 11348.95
683.8440, 10818.70
685.0010, 10021.42
686.1570, 9389.113
687.3130, 8526.789
688.4690, 7566.480
689.6250, 6810.176
690.7810, 5828.836
691.9370, 5203.477
693.0920, 4383.125
694.2470, 3922.320
695.4020, 3365.301
696.5570, 2874.873
697.7120, 2408.158
698.8670, 2126.904
700.0210, 1949.586
701.1750, 1674.920
702.3290, 1701.961
703.4830, 1576.986
704.6370, 1602.648
705.7910, 1519.980
706.9440, 1411.631
708.0970, 1428.391
709.2510, 1328.105
710.4030, 1377.906
711.5560, 1609.066
712.7090, 1365.410
713.8610, 1572.318
715.0140, 1566.889
716.1660, 1418.984
717.3180, 1732.729
718.4690, 1622.908
719.6210, 1715.062
720.7730, 1761.078
721.9240, 1812.549
723.0750, 1816.971
724.2260, 1859.506
725.3770, 2003.498
726.5270, 1753.756
727.6780, 2132.967
728.8280, 2024.330
729.9780, 1890.666
731.1280, 1949.270
732.2780, 1816.873
733.4280, 1776.029
734.5770, 1841.492
735.7260, 1797.318
736.8760, 1657.010
738.0250, 1420.266
739.1730, 1451.396
740.3220, 1332.180
741.4700, 1315.920
742.6190, 1065.479
743.7670, 1129.102
744.9150, 969.6836
746.0630, 1006.531
747.2100, 753.9336
748.3580, 807.3262
749.5050, 590.0742
750.6520, 550.8047
751.7990, 354.5117
752.9460, 502.1973
754.0930, 150.8652
755.2390, 73.50391
756.3860, 305.1016
757.5320, 270.6992
758.6780, 272.2812
759.8240, 275.8496
760.9690, 422.4043
762.1150, 431.9453
763.2600, 411.4727
764.4060, 343.9863
765.5510, 588.4883
766.6950, 588.9824
767.8400, 625.4668
768.9850, 791.9395
770.1290, 939.4043
771.2730, 969.8613
772.4170, 933.3105
773.5610, 1078.338
774.7050, 1135.197
775.8480, 1268.633
776.9920, 1315.062
778.1350, 1403.490
779.2780, 1573.918
780.4210, 1453.340
781.5640, 1446.764
782.7060, 1472.188
783.8490, 1323.613
784.9910, 1468.037
786.1330, 1372.463
787.2750, 1256.895
788.4170, 1299.328
789.5580, 1383.764
790.7000, 1123.207
791.8410, 1195.654
792.9820, 1097.111
794.1230, 1086.574
795.2640, 915.0488
796.4040, 938.6816
797.5450, 1104.021
798.6850, 917.5254
799.8250, 876.0391
800.9650, 826.5645
802.1050, 1006.102
803.2450, 934.6562
804.3840, 686.2227
805.5230, 638.8008
806.6630, 970.3984
807.8020, 1089.010
808.9400, 816.6406
810.0790, 638.2871
811.2170, 699.9512
812.3560, 682.6328
813.4940, 796.3379
814.6320, 659.0605
815.7700, 573.8008
816.9070, 509.5664
818.0450, 529.3516
819.1820, 505.1602
820.3190, 539.9902
821.4560, 558.8457
822.5930, 523.7246
823.7300, 466.3359
824.8670, 392.0605
826.0030, 260.5020
827.1390, 206.4746
828.2750, 61.47656
829.4110, 19.50000
830.5470, 47.45117
831.6820, 149.4023
832.8180, 266.3887
833.9530, 160.4707
835.0880, 258.5938
836.2230, 277.8066
837.3580, 133.1152
838.4920, 357.4473
839.6270, 152.9141
840.7610, 406.4102
841.8950, 309.0625
843.0290, 442.8184
844.1630, 337.7441
845.2960, 340.7852
846.4300, 294.9375
847.5630, 235.1797
848.6960, 166.4766
849.8290, 219.7988
850.9620, 50.16602
852.0940, 150.5137
853.2270, 121.8730
854.3590, 110.2324
855.4910, 6.412109
856.6230, 127.0918
857.7550, 134.8145
858.8870, 195.5801
860.0180, 426.4141
861.1500, 303.3066
862.2810, 425.3281
863.4120, 310.4746
864.5430, 466.7402
865.6730, 745.1484
866.8040, 790.7148
867.9340, 1018.520
869.0640, 1002.582
870.1940, 1089.854
871.3240, 1078.404
872.4540, 1468.248
873.5830, 1503.412
874.7130, 1632.807
875.8420, 1692.412
876.9710, 1937.238
878.1000, 2049.283
879.2290, 2252.494
880.3570, 2308.844
881.4860, 2535.307
882.6140, 2893.904
883.7420, 2904.590
884.8700, 3272.357
885.9980, 3154.213
887.1250, 3546.193
888.2530, 3615.262
889.3800, 4048.398
890.5070, 4176.121
891.6340, 4332.408
892.7610, 4656.820
893.8880, 4937.320
895.0140, 5287.910
896.1400, 5260.596
897.2670, 5847.355
898.3930, 5894.252
899.5180, 6394.219
900.6440, 6599.246
901.7700, 7005.344
902.8950, 7361.586
904.0200, 7709.920
905.1450, 8004.336
906.2700, 8241.828
907.3950, 8716.383
908.5190, 9131.012
909.6440, 9315.215
910.7680, 9513.498
911.8920, 9603.375
913.0160, 9783.348
914.1400, 9883.131
915.2630, 9998.559
916.3870, 10005.77
917.5100, 10165.05
918.6330, 10073.41
919.7560, 9791.824
920.8790, 9806.316
922.0010, 9615.914
923.1240, 9693.588
924.2460, 9716.340
925.3680, 9504.197
926.4900, 9744.160
927.6120, 9610.227
928.7340, 9584.402
929.8550, 9632.666
930.9760, 9697.031
932.0980, 9700.461
933.2190, 9338.961
934.3390, 9891.539
935.4600, 9791.184
936.5810, 10197.89
937.7010, 10019.66
938.8210, 9871.500
939.9410, 9925.422
941.0610, 9619.406
942.1810, 9933.461
943.3010, 9988.574
944.4200, 9937.754
945.5390, 9741.002
946.6580, 9716.312
947.7770, 9496.684
948.8960, 9482.119
950.0150, 9636.617
951.1330, 9399.176
952.2510, 9460.734
953.3690, 9224.475
954.4870, 9367.217
955.6050, 9286.020
956.7230, 9201.885
957.8400, 9070.812
958.9580, 9101.803
960.0750, 8837.854
961.1920, 8691.965
962.3090, 8728.141
963.4250, 8915.387
964.5420, 8958.672
965.6580, 9121.471
966.7740, 8366.473
967.8900, 8280.893
969.0060, 8079.590
970.1220, 7989.818
971.2380, 7742.100
972.3530, 7811.719
973.4680, 7802.623
974.5830, 7568.531
975.6980, 7664.805
976.8130, 7621.217
977.9280, 7389.662
979.0420, 7528.811
980.1560, 7465.996
981.2710, 7578.086
982.3850, 7501.812
983.4980, 7575.100
984.6120, 7597.314
985.7260, 7722.607
986.8390, 7941.371
987.9520, 8111.482
989.0650, 8390.150
990.1780, 8469.217
991.2910, 8581.691
992.4030, 8763.621
993.5160, 9071.623
994.6280, 9479.699
995.7400, 9624.838
996.8520, 10014.04
997.9640, 10357.32
999.0750, 10628.66
1000.187, 11163.06
1001.298, 11562.53
1002.409, 12046.06
1003.520, 12262.24
1004.631, 12750.07
1005.741, 13387.48
1006.852, 13584.42
1007.962, 13573.53
1009.072, 14035.88
1010.182, 14627.31
1011.292, 14502.60
1012.402, 14904.25
1013.511, 15008.77
1014.621, 14946.54
1015.730, 15066.01
1016.839, 14978.43
1017.948, 15082.32
1019.056, 14575.05
1020.165, 14138.60
1021.273, 14257.26
1022.382, 14162.25
1023.490, 13712.03
1024.598, 13440.68
1025.706, 13072.85
1026.813, 12687.53
1027.921, 12369.61
1029.028, 11988.90
1030.135, 11672.63
1031.242, 11327.50
1032.349, 11089.25
1033.456, 10596.02
1034.562, 10223.23
1035.668, 9826.160
1036.775, 9553.477
1037.881, 9213.422
1038.987, 8890.971
1040.092, 8613.348
1041.198, 8291.555
1042.303, 7981.955
1043.408, 7720.592
1044.514, 7599.473
1045.618, 7278.100
1046.723, 7020.086
1047.828, 7095.258
1048.932, 6814.045
1050.037, 6835.473
1051.141, 6510.578
1052.245, 6612.906
1053.349, 6497.264
1054.452, 6297.465
1055.556, 6017.922
1056.659, 5984.350
1057.762, 5832.643
1058.865, 5834.406
1059.968, 5785.705
1061.071, 5516.000
1062.174, 5286.010
1063.276, 5134.031
1064.378, 5081.617
1065.480, 5287.740
1066.582, 4949.535
1067.684, 5115.852
1068.786, 4719.660
1069.887, 4871.408
1070.988, 4578.344
1072.090, 4402.043
1073.191, 4571.004
1074.291, 4437.783
1075.392, 4447.613
1076.493, 4360.660
1077.593, 3959.857
1078.693, 4105.211
1079.793, 4283.125
1080.893, 3927.361
1081.993, 3898.203
1083.092, 3954.951
1084.192, 3742.355
1085.291, 3781.576
1086.390, 3700.479
1087.489, 3456.871
1088.588, 3584.352
1089.686, 3331.873
1090.785, 3412.914
1091.883, 3186.516
1092.981, 2858.070
1094.079, 3058.832
1095.177, 2812.895
1096.275, 2652.234
1097.373, 2689.562
1098.470, 2637.893
1099.567, 2239.242
1100.664, 2505.912
1101.761, 2259.332
1102.858, 1912.256
1103.954, 1983.781
1105.051, 2000.369
1106.147, 1772.283
1107.243, 1773.357
1108.339, 1708.934
1109.435, 1498.938
1110.531, 1178.209
1111.626, 1361.920
1112.722, 1439.594
1113.817, 1416.473
1114.912, 992.0020
1116.007, 1086.389
1117.101, 972.4629
1118.196, 849.9297
1119.290, 1017.266
1120.385, 650.7090
1121.479, 813.5840
1122.573, 764.9062
1123.666, 813.6348
1124.760, 653.9062
1125.853, 557.5352
1126.947, 670.1133
1128.040, 666.9316
1129.133, 481.9727
1130.226, 536.3809
1131.318, 162.4512
1132.411, 164.5488
1133.503, 328.3125
1134.596, 13.41602
1135.688, 31.46094
1136.780, 158.8652
1137.871, 147.6387
1138.963, 50.95898
1140.054, 0.5371090
1141.146, 0.2460940
1142.237, 30.09375
1143.328, 29.45312
1144.419, 11.66211
1145.509, 58.00781
1146.600, 82.01172
1147.690, 30.08789
1148.780, 5.560547
1149.870, 108.5059
1150.960, 245.8105
1152.050, 101.2988
1153.139, 23.89844
1154.229, 256.5684
1155.318, 92.43359
1156.407, 40.70312
1157.496, 81.32031
1158.585, 87.45312
1159.674, 132.3145
1160.762, 0.3046880
1161.850, 270.7520
1162.939, 4.583984
1164.027, 34.85352
1165.114, 2.064453
1166.202, 277.7988
1167.290, 74.50586
1168.377, 46.70898
1169.464, 1.984375
1170.551, 34.32422
1171.638, 16.50391
1172.725, 1.080078
1173.812, 34.68945
1174.898, 52.35938
1175.984, 78.18555
1177.071, 34.14062
1178.157, 35.09375
1179.242, 137.6250
1180.328, 3.603516
1181.414, 106.0820
1182.499, 87.70508
1183.584, 20.26367
1184.669, 88.26172
1185.754, 5.087891
1186.839, 25.33984
1187.924, 100.4902
1189.008, 74.47070
1190.092, 81.47070
1191.177, 111.7539
1192.260, 10.17969
1193.344, 56.71289
1194.428, 59.61719
1195.512, 182.8691
1196.595, 15.06055
1197.678, 150.0703
1198.761, 107.5449
1199.844, 114.4980
1200.927, 227.5273
1202.009, 6.416016
1203.092, 228.1270
1204.174, 122.8848
1205.256, 121.4590
1206.338, 216.9609
1207.420, 104.3984
1208.502, 174.7598
1209.583, 256.0703
1210.665, 193.2988
1211.746, 277.4570
1212.827, 301.5508
1213.908, 456.7871
1214.988, 202.7559
1216.069, 269.6562
1217.149, 411.8027
1218.230, 176.5723
1219.310, 173.2734
1220.390, 240.3535
1221.470, 350.8789
1222.549, 176.3730
1223.629, 313.3555
1224.708, 96.70898
1225.787, 599.0098
1226.866, 487.2148
1227.945, 531.3906
1229.024, 465.4707
1230.103, 357.7617
1231.181, 476.7109
1232.259, 317.2988
1233.337, 531.4590
1234.415, 419.2070
1235.493, 360.2148
1236.571, 238.8262
1237.648, 329.3691
1238.726, 376.8359
1239.803, 414.7227
1240.880, 508.0527
1241.957, 373.3164
1243.034, 449.5527
1244.110, 309.9707
1245.187, 358.4844
1246.263, 551.4746
1247.339, 532.0078
1248.415, 404.8730
1249.491, 617.6621
1250.566, 371.4570
1251.642, 511.0781
1252.717, 288.0098
1253.793, 187.4824
1254.868, 385.4746
1255.943, 532.9648
1257.017, 434.2090
1258.092, 336.8086
1259.166, 366.9043
1260.241, 472.9277
1261.315, 327.8809
1262.389, 422.9043
1263.462, 396.9336
1264.536, 394.0781
1265.610, 468.6270
1266.683, 283.5137
1267.756, 380.9414
1268.829, 409.4082
1269.902, 522.6133
1270.975, 369.9297
1272.048, 499.2695
1273.120, 577.2012
1274.192, 397.9062
1275.264, 594.2949
1276.336, 454.3066
1277.408, 267.0020
1278.480, 423.3809
1279.551, 470.7090
1280.623, 470.5273
1281.694, 510.9336
1282.765, 475.0625
1283.836, 523.0781
1284.907, 379.5977
1285.977, 459.3652
1287.048, 448.9590
1288.118, 303.1309
1289.188, 292.1348
1290.258, 430.7168
1291.328, 437.6484
1292.398, 381.6816
1293.467, 396.6641
1294.537, 370.1777
1295.606, 255.9492
1296.675, 457.3047
1297.744, 360.2363
1298.813, 263.0566
1299.882, 455.2715
1300.950, 464.8574
1302.018, 425.0625
1303.086, 313.9199
1304.155, 396.5098
1305.222, 372.1699
1306.290, 491.7383
1307.358, 432.9453
1308.425, 388.5020
1309.492, 379.4844
1310.559, 361.0137
1311.626, 337.5879
1312.693, 364.4453
1313.760, 384.5664
1314.826, 392.3887
1315.893, 506.0801
1316.959, 389.8926
1318.025, 282.1875
1319.091, 232.9141
1320.157, 307.6094
1321.222, 338.5527
1322.288, 276.4785
1323.353, 268.6797
1324.418, 229.5762
1325.483, 223.5879
1326.548, 139.0430
1327.612, 310.9727
1328.677, 186.9238
1329.741, 204.6504
1330.806, 314.5801
1331.870, 189.2012
1332.934, 301.9727
1333.997, 257.6523
1335.061, 284.0723
1336.124, 298.2852
1337.188, 204.3027
1338.251, 285.7188
1339.314, 270.7715
1340.377, 251.1797
1341.439, 155.6211
1342.502, 217.3633
1343.564, 313.2500
1344.627, 126.4102
1345.689, 242.0391
1346.751, 257.5332
1347.813, 88.94141
1348.874, 26.22070
1349.936, 306.0078
1350.997, 59.24023
1352.058, 222.2148
1353.119, 181.8457
1354.180, 269.1523
1355.241, 177.4258
1356.301, 219.6641
1357.362, 117.1582
1358.422, 187.7715
1359.482, 28.90234
1360.542, 21.45703
1361.602, 239.5918
1362.662, 98.53516
1363.721, 193.1895
1364.781, 259.2324
1365.840, 185.6895
1366.899, 53.29492
1367.958, 305.2500
1369.017, 302.0566
1370.075, 154.5371
1371.134, 93.28516
1372.192, 50.42773
1373.250, 157.7383
1374.308, 16.59961
1375.366, 151.0254
1376.424, 149.4180
1377.481, 129.9922
1378.539, 241.1797
1379.596, 59.68555
1380.653, 213.4453
1381.710, 13.22852
1382.767, 103.2871
1383.824, 178.6426
1384.880, 39.84375
1385.937, 185.6094
1386.993, 154.4727
1388.049, 289.7285
1389.105, 99.36914
1390.161, 79.38281
1391.216, 228.2578
1392.272, 114.8145
1393.327, 186.2441
1394.382, 107.6562
1395.437, 48.52148
1396.492, 51.49805
1397.547, 1.660156
1398.601, 20.43164
1399.656, 22.55273
1400.710, 104.6660
1401.764, 167.5059
1402.818, 59.39844
1403.872, 114.6855
1404.925, 63.97461
1405.979, 144.9160
1407.032, 27.59375
1408.085, 185.5859
1409.139, 272.7168
1410.191, 292.7832
1411.244, 44.93359
1412.297, 143.0195
1413.349, 102.5430
1414.402, 56.38672
1415.454, 202.9258
1416.506, 6.257813
1417.558, 137.6406
1418.609, 140.8203
1419.661, 208.4453
1420.712, 136.5312
1421.764, 107.7246
1422.815, 218.5586
1423.866, 252.1465
1424.916, 164.3066
1425.967, 235.8613
1427.018, 22.41406
1428.068, 59.33203
1429.118, 204.2812
1430.168, 123.4727
1431.218, 121.1562
1432.268, 206.7793
1433.318, 97.42773
1434.367, 194.1074
1435.416, 49.22656
1436.465, 147.4551
1437.514, 243.1406
1438.563, 206.8398
1439.612, 81.98047
1440.661, 38.76758
1441.709, 329.5449
1442.757, 28.27344
1443.805, 112.8633
1444.853, 88.79102
1445.901, 264.3086
1446.949, 207.5977
1447.996, 55.55469
1449.044, 344.5410
1450.091, 41.16797
1451.138, 295.0078
1452.185, 255.9375
1453.232, 82.83203
1454.278, 141.8418
1455.325, 146.8301
1456.371, 175.8281
1457.417, 315.5918
1458.463, 254.5625
1459.509, 122.1758
1460.555, 226.6289
1461.601, 251.2207
1462.646, 98.50000
1463.691, 69.39453
1464.737, 151.2676
1465.782, 206.8477
1466.826, 113.1191
1467.871, 256.5840
1468.916, 170.4375
1469.960, 148.6973
1471.004, 217.5430
1472.048, 122.9648
1473.092, 154.7266
1474.136, 157.9355
1475.180, 159.5957
1476.223, 167.9258
1477.267, 197.9746
1478.310, 283.5938
1479.353, 235.8828
1480.396, 299.7578
1481.439, 273.1387
1482.481, 109.9609
1483.524, 221.7812
1484.566, 31.85547
1485.608, 187.4648
1486.650, 324.7754
1487.692, 221.7695
1488.734, 207.4199
1489.775, 143.8770
1490.817, 20.83984
1491.858, 273.4648
1492.899, 8.546875
1493.940, 266.2031
1494.981, 29.43750
1496.022, 246.4629
1497.062, 64.50391
1498.103, 254.5508
1499.143, 170.6113
1500.183, 217.1348
1501.223, 205.2051
1502.263, 204.2871
1503.302, 261.9648
1504.342, 254.5801
1505.381, 304.6172
1506.420, 252.5176
1507.459, 147.4473
1508.498, 51.29297
1509.537, 273.1406
1510.576, 293.9219
1511.614, 153.5879
1512.652, 83.40625
1513.691, 92.20898
1514.729, 179.0020
1515.767, 16.77734
1516.804, 219.5859
1517.842, 238.4277
1518.879, 116.2617
1519.917, 121.1699
1520.954, 221.0820
1521.991, 117.9922
1523.028, 168.9453
1524.064, 86.92383
1525.101, 199.9219
1526.137, 249.9336
1527.173, 191.9531
1528.210, 231.9746
1529.245, 307.0449
1530.281, 217.2500
1531.317, 254.4512
1532.352, 101.9648
1533.388, 10.19141
1534.423, 67.42578
1535.458, 114.6543
1536.493, 132.8926
1537.528, 0.7812500
1538.562, 160.3164
1539.597, 249.2891
1540.631, 271.2773
1541.665, 25.33398
1542.700, 125.4629
1543.733, 86.99414
1544.767, 42.90234
1545.801, 191.9395
1546.834, 14.70312
1547.868, 131.4141
1548.901, 136.8379
1549.934, 206.7969
1550.967, 137.3164
1551.999, 111.0684
1553.032, 224.5312
1554.064, 260.8672
1555.097, 175.8438
1556.129, 250.7305
1557.161, 40.47266
1558.193, 80.75195
1559.224, 225.2793
1560.256, 147.8672
1561.287, 225.8535
1562.318, 244.8789
1563.350, 4.587891
1564.380, 213.2891
1565.411, 229.5469
1566.442, 2.595703
1567.472, 0.6035160
1568.503, 24.67969
1569.533, 23.24414
1570.563, 0.0000000E+00
##END=



