##NAMES=Metatorbernite
##RRUFFID=R070686
##IDEAL CHEMISTRY=Cu(UO_2_)_2_(PO_4_)_2_&#183;8H_2_O
##LOCALITY= Fichtelgebirge, Franconia, Bavaria, Germany
##OWNER=RRUFF
##SOURCE=Michael Scott
##DESCRIPTION=Green tabular crystals
##STATUS=The identification of this mineral has been confirmed by X-ray diffraction.
##URL=rruff.info/R070686
##PIN_ID=M01699
##ORIENTATION=Laser parallel to c* (0 0 1). Fiducial mark perpendicular to laser is parallel to b [0 1 0]
136.1040, 0.0000000E+00
137.3420, 20.50635
138.5800, 49.06934
139.8180, 45.92529
141.0560, 31.86475
142.2940, 32.35742
143.5310, 70.95068
144.7680, 71.64111
146.0050, 87.78125
147.2420, 109.2021
148.4790, 32.86182
149.7150, 28.58887
150.9510, 32.24072
152.1870, 50.68604
153.4230, 112.8081
154.6590, 47.49316
155.8940, 61.31250
157.1300, 59.74463
158.3650, 0.8823240
159.6000, 18.18896
160.8340, 116.3940
162.0690, 86.66748
163.3030, 282.9517
164.5370, 267.1958
165.7710, 369.3564
167.0050, 248.3940
168.2380, 229.2744
169.4720, 244.9673
170.7050, 238.4453
171.9380, 259.6836
173.1700, 409.6592
174.4030, 435.3296
175.6350, 520.6426
176.8680, 519.5537
178.1000, 894.0259
179.3310, 895.0259
180.5630, 1146.532
181.7940, 1626.524
183.0260, 1671.989
184.2570, 2015.914
185.4870, 2696.287
186.7180, 2766.098
187.9480, 3313.340
189.1790, 3789.006
190.4090, 4068.088
191.6390, 4293.582
192.8680, 4601.479
194.0980, 4721.776
195.3270, 4366.469
196.5560, 4048.553
197.7850, 3366.022
199.0140, 2742.875
200.2420, 2241.105
201.4710, 1750.713
202.6990, 1295.692
203.9270, 1109.041
205.1550, 920.7554
206.3820, 1039.833
207.6090, 776.2725
208.8370, 951.0684
210.0640, 859.1567
211.2900, 1166.337
212.5170, 1342.600
213.7440, 1305.940
214.9700, 1520.382
216.1960, 1636.924
217.4220, 1834.569
218.6470, 1991.350
219.8730, 1932.228
221.0980, 1932.218
222.3230, 1970.377
223.5480, 1925.713
224.7730, 1829.234
225.9970, 1666.946
227.2220, 1428.854
228.4460, 1327.963
229.6700, 1198.274
230.8940, 992.7935
232.1170, 962.5195
233.3400, 705.4570
234.5640, 533.6074
235.7870, 573.9717
237.0100, 319.5508
238.2320, 330.3467
239.4550, 120.3574
240.6770, 330.5869
241.8990, 243.0332
243.1210, 228.6992
244.3420, 300.5830
245.5640, 294.6846
246.7850, 308.0039
248.0060, 327.5410
249.2270, 401.2959
250.4480, 545.2686
251.6690, 466.4580
252.8890, 415.8652
254.1090, 475.4873
255.3290, 172.3271
256.5490, 467.3818
257.7680, 339.6533
258.9880, 335.1406
260.2070, 485.8428
261.4260, 480.7598
262.6450, 660.8896
263.8640, 474.2354
265.0820, 583.7930
266.3000, 494.5645
267.5180, 583.5459
268.7360, 650.7402
269.9540, 572.1445
271.1720, 676.7588
272.3890, 708.5820
273.6060, 756.6152
274.8230, 907.8584
276.0400, 799.3096
277.2560, 1048.969
278.4730, 1060.836
279.6890, 1060.910
280.9050, 1268.190
282.1210, 1383.677
283.3370, 1417.562
284.5520, 1472.279
285.7670, 1598.887
286.9820, 1488.338
288.1970, 1603.799
289.4120, 1576.987
290.6270, 1560.083
291.8410, 1570.439
293.0550, 1599.772
294.2690, 1406.316
295.4830, 1444.272
296.6970, 1416.930
297.9100, 1500.325
299.1230, 1586.023
300.3360, 1606.991
301.5490, 1399.230
302.7620, 1304.496
303.9740, 1477.406
305.1860, 1522.410
306.3990, 1494.681
307.6110, 1506.197
308.8220, 1507.970
310.0340, 1452.978
311.2450, 1597.231
312.4560, 1423.711
313.6670, 1570.408
314.8780, 1421.340
316.0890, 1466.482
317.2990, 1487.822
318.5090, 1335.357
319.7200, 1510.083
320.9290, 1385.998
322.1390, 1357.107
323.3490, 1366.398
324.5580, 1528.871
325.7670, 1576.521
326.9760, 1427.346
328.1850, 1505.347
329.3930, 1475.521
330.6020, 1602.865
331.8100, 1606.380
333.0180, 1653.062
334.2260, 1709.911
335.4340, 1749.928
336.6410, 1772.109
337.8480, 1781.452
339.0550, 1743.956
340.2620, 1809.620
341.4690, 1893.440
342.6760, 1872.418
343.8820, 2037.551
345.0880, 1918.838
346.2940, 2015.277
347.5000, 2042.868
348.7060, 1909.607
349.9110, 2150.496
351.1160, 1965.532
352.3210, 1935.715
353.5260, 2059.040
354.7310, 2039.511
355.9360, 2029.123
357.1400, 2166.878
358.3440, 2096.774
359.5480, 2218.814
360.7520, 2172.996
361.9550, 2195.319
363.1590, 2296.785
364.3620, 2334.392
365.5650, 2373.142
366.7680, 2472.031
367.9710, 2345.062
369.1730, 2500.233
370.3760, 2404.548
371.5780, 2405.002
372.7800, 2432.596
373.9810, 2574.331
375.1830, 2657.205
376.3840, 2632.216
377.5860, 2720.362
378.7870, 2742.647
379.9880, 2675.073
381.1880, 2795.634
382.3890, 2827.330
383.5890, 2854.902
384.7890, 2780.123
385.9890, 2956.230
387.1890, 2897.469
388.3880, 2960.842
389.5880, 3132.342
390.7870, 3251.972
391.9860, 3520.728
393.1850, 3779.610
394.3840, 4113.619
395.5820, 4551.755
396.7800, 5068.016
397.9790, 5314.406
399.1770, 5763.922
400.3740, 6169.571
401.5720, 6575.346
402.7690, 6756.238
403.9670, 6865.258
405.1640, 7065.441
406.3600, 7346.760
407.5570, 7144.219
408.7540, 6759.809
409.9500, 6398.523
411.1460, 5582.361
412.3420, 5224.324
413.5380, 4547.424
414.7330, 4312.642
415.9290, 4020.991
417.1240, 3774.472
418.3190, 3626.068
419.5140, 3433.793
420.7090, 3396.636
421.9030, 3369.597
423.0970, 3295.680
424.2920, 3333.180
425.4860, 3409.278
426.6790, 3406.896
427.8730, 3395.488
429.0660, 3450.229
430.2600, 3471.436
431.4530, 3691.480
432.6460, 3703.410
433.8380, 3874.028
435.0310, 4025.410
436.2230, 4127.008
437.4150, 4274.815
438.6070, 4217.095
439.7990, 4277.885
440.9910, 4283.793
442.1820, 4367.874
443.3730, 4209.746
444.5640, 4109.764
445.7550, 3762.287
446.9460, 3670.074
448.1370, 3454.182
449.3270, 3237.458
450.5170, 3213.455
451.7070, 2953.186
452.8970, 2959.898
454.0870, 2825.434
455.2760, 2891.143
456.4650, 2763.017
457.6550, 2764.248
458.8430, 2558.135
460.0320, 2668.040
461.2210, 2545.104
462.4090, 2551.738
463.5970, 2525.021
464.7850, 2494.037
465.9730, 2375.041
467.1610, 2246.168
468.3480, 2282.418
469.5360, 2024.796
470.7230, 2026.291
471.9100, 1931.905
473.0970, 1950.632
474.2830, 1757.465
475.4700, 1670.406
476.6560, 1645.446
477.8420, 1667.969
479.0280, 1565.909
480.2140, 1524.583
481.3990, 1463.031
482.5850, 1338.582
483.7700, 1378.234
484.9550, 1178.984
486.1400, 1201.827
487.3240, 1261.777
488.5090, 1183.820
489.6930, 1053.958
490.8770, 1050.184
492.0610, 956.4990
493.2450, 939.9014
494.4290, 1018.390
495.6120, 1018.967
496.7950, 954.6289
497.9780, 806.3750
499.1610, 859.2012
500.3440, 924.1084
501.5260, 925.0938
502.7090, 963.1572
503.8910, 751.2979
505.0730, 921.5127
506.2550, 736.8018
507.4360, 819.1641
508.6180, 827.5986
509.7990, 678.1045
510.9800, 796.6807
512.1610, 718.8604
513.3420, 669.5762
514.5230, 693.3594
515.7030, 650.4111
516.8830, 566.3301
518.0630, 590.3135
519.2430, 524.3643
520.4230, 615.9443
521.6020, 492.3896
522.7820, 535.6318
523.9610, 443.8379
525.1400, 496.2041
526.3190, 440.6309
527.4970, 447.0312
528.6760, 429.9248
529.8540, 286.9268
531.0320, 367.5908
532.2100, 364.4590
533.3880, 491.2363
534.5660, 347.0684
535.7430, 441.9561
536.9200, 401.9971
538.0970, 463.4404
539.2740, 325.6055
540.4510, 440.7529
541.6270, 351.8643
542.8040, 269.1729
543.9800, 256.4150
545.1560, 330.0850
546.3320, 153.9980
547.5080, 295.5771
548.6830, 146.1992
549.8580, 194.6680
551.0340, 176.7266
552.2090, 247.3848
553.3830, 148.2324
554.5580, 184.0854
555.7320, 330.5938
556.9070, 184.3354
558.0810, 245.8584
559.2550, 134.6113
560.4280, 69.78418
561.6020, 167.6650
562.7750, 120.9736
563.9490, 88.11914
565.1220, 36.93164
566.2950, 1.884766
567.4670, 11.17529
568.6400, 38.77783
569.8120, 100.3428
570.9840, 19.27246
572.1560, 53.66992
573.3280, 38.11963
574.5000, 57.88135
575.6710, 78.26025
576.8430, 79.75732
578.0140, 80.20264
579.1850, 88.40869
580.3560, 67.96436
581.5260, 96.20605
582.6970, 96.01709
583.8670, 84.58984
585.0370, 187.8164
586.2070, 146.6318
587.3770, 195.8760
588.5460, 70.02832
589.7160, 97.89990
590.8850, 137.8589
592.0540, 220.4785
593.2230, 121.5747
594.3920, 207.1963
595.5600, 112.0156
596.7290, 85.37793
597.8970, 186.3867
599.0650, 76.36865
600.2330, 12.58496
601.4000, 13.48730
602.5680, 102.2959
603.7350, 10.74414
604.9020, 57.29883
606.0690, 40.08057
607.2360, 22.26416
608.4030, 71.82617
609.5690, 46.09766
610.7360, 19.98438
611.9020, 71.63818
613.0680, 138.5767
614.2340, 118.0762
615.3990, 81.03467
616.5650, 47.39795
617.7300, 2.715332
618.8950, 18.81152
620.0600, 230.2583
621.2250, 83.14404
622.3890, 155.4536
623.5540, 249.0464
624.7180, 138.0337
625.8820, 159.4775
627.0460, 198.9658
628.2100, 143.4614
629.3730, 83.56104
630.5370, 112.1113
631.7000, 144.6387
632.8630, 83.13770
634.0260, 43.83936
635.1890, 172.4121
636.3510, 80.05811
637.5140, 86.91992
638.6760, 127.9639
639.8380, 62.24170
641.0000, 173.1260
642.1610, 84.23389
643.3230, 135.8545
644.4840, 117.4297
645.6450, 128.1577
646.8060, 101.4517
647.9670, 166.9028
649.1280, 99.31348
650.2880, 79.69189
651.4490, 31.03613
652.6090, 69.33740
653.7690, 128.6348
654.9290, 16.94336
656.0880, 152.2251
657.2480, 110.4800
658.4070, 72.73486
659.5660, 45.95801
660.7250, 23.95654
661.8840, 92.36426
663.0430, 37.54346
664.2010, 101.7158
665.3600, 206.8657
666.5180, 0.9843750
667.6760, 66.11133
668.8330, 66.17578
669.9910, 134.1914
671.1480, 84.14697
672.3060, 133.0479
673.4630, 197.8877
674.6200, 141.6675
675.7770, 98.38525
676.9330, 83.03809
678.0900, 63.62158
679.2460, 111.1299
680.4020, 26.57227
681.5580, 112.9209
682.7140, 137.2012
683.8690, 72.41504
685.0250, 86.45215
686.1800, 37.52002
687.3350, 11.60645
688.4900, 70.14258
689.6450, 60.80176
690.7990, 101.3657
691.9540, 51.84766
693.1080, 35.22705
694.2620, 92.49609
695.4160, 44.67383
696.5700, 32.74121
697.7230, 130.6919
698.8770, 46.55664
700.0300, 105.3071
701.1830, 97.96240
702.3360, 80.51855
703.4890, 46.96875
704.6410, 87.12988
705.7930, 78.08643
706.9460, 166.4009
708.0980, 88.42188
709.2500, 125.3311
710.4010, 85.82275
711.5530, 108.5146
712.7040, 61.36426
713.8560, 213.5615
715.0070, 173.0430
716.1580, 59.35400
717.3080, 70.48291
718.4590, 243.1675
719.6090, 102.3916
720.7590, 152.5303
721.9090, 184.5312
723.0590, 132.7778
724.2090, 148.9087
725.3590, 94.57129
726.5080, 154.0015
727.6570, 54.14941
728.8060, 55.20020
729.9550, 96.73828
731.1040, 189.3813
732.2530, 120.7358
733.4010, 34.45557
734.5490, 142.8408
735.6970, 35.71826
736.8450, 54.13770
737.9930, 33.98779
739.1400, 163.7788
740.2880, 14.93848
741.4350, 91.60449
742.5820, 24.75391
743.7290, 79.15381
744.8760, 57.26025
746.0220, 49.06934
747.1690, 32.93701
748.3150, 71.18164
749.4610, 69.02686
750.6070, 118.7441
751.7530, 168.3457
752.8980, 147.8394
754.0440, 243.2217
755.1890, 181.5063
756.3340, 174.3052
757.4790, 268.3516
758.6240, 156.3242
759.7680, 138.1841
760.9130, 171.9277
762.0570, 205.5601
763.2010, 241.0874
764.3450, 96.51172
765.4890, 236.8086
766.6320, 200.0029
767.7760, 322.0884
768.9190, 234.0786
770.0620, 324.9648
771.2050, 298.7544
772.3480, 230.4468
773.4900, 301.0332
774.6330, 281.5215
775.7750, 367.9092
776.9170, 337.2031
778.0590, 389.4014
779.2010, 351.5059
780.3420, 436.5151
781.4840, 552.4326
782.6250, 588.2822
783.7660, 603.2930
784.9070, 632.0547
786.0480, 611.6113
787.1890, 685.9600
788.3290, 697.0049
789.4690, 850.8926
790.6100, 890.3223
791.7490, 932.5098
792.8890, 1230.156
794.0290, 1124.434
795.1680, 1328.990
796.3080, 1566.277
797.4470, 1576.019
798.5860, 1667.783
799.7250, 1795.026
800.8630, 1946.725
802.0020, 2146.396
803.1400, 2270.627
804.2780, 2470.587
805.4160, 2793.097
806.5540, 2919.510
807.6920, 3280.284
808.8300, 3360.101
809.9670, 3950.680
811.1040, 4400.166
812.2410, 4940.551
813.3780, 5767.739
814.5150, 6675.482
815.6510, 7879.457
816.7880, 10114.41
817.9240, 13000.34
819.0600, 16531.04
820.1960, 21097.74
821.3320, 26246.97
822.4670, 31698.91
823.6030, 37580.14
824.7380, 43649.26
825.8730, 48426.50
827.0080, 48959.09
828.1430, 44761.02
829.2770, 36998.71
830.4120, 28168.35
831.5460, 20906.27
832.6800, 14873.90
833.8140, 11031.70
834.9480, 8586.204
836.0810, 6886.237
837.2150, 5956.503
838.3480, 5211.282
839.4810, 4769.166
840.6140, 4295.323
841.7470, 3731.048
842.8800, 3271.186
844.0120, 2842.149
845.1450, 2261.176
846.2770, 2050.451
847.4090, 1769.104
848.5410, 1427.425
849.6720, 1393.648
850.8040, 1296.417
851.9350, 1140.229
853.0660, 1062.016
854.1970, 926.2012
855.3280, 894.9204
856.4590, 846.1670
857.5900, 940.9019
858.7200, 667.3164
859.8500, 653.3018
860.9800, 656.7773
862.1100, 489.5884
863.2400, 492.2046
864.3700, 264.4575
865.4990, 337.7056
866.6280, 252.5166
867.7570, 206.6895
868.8860, 193.2852
870.0150, 149.9604
871.1440, 216.0718
872.2720, 216.7344
873.4010, 207.2549
874.5290, 204.5254
875.6570, 234.1704
876.7850, 121.6558
877.9120, 207.8721
879.0400, 110.5156
880.1670, 160.1216
881.2940, 163.8340
882.4210, 206.0811
883.5480, 240.4214
884.6750, 270.2861
885.8020, 318.8394
886.9280, 370.7251
888.0540, 413.9922
889.1800, 400.9648
890.3060, 479.8252
891.4320, 564.6479
892.5580, 607.2305
893.6830, 727.1230
894.8080, 626.1191
895.9330, 844.6040
897.0580, 804.7207
898.1830, 791.3560
899.3080, 869.4487
900.4320, 865.4092
901.5570, 873.2749
902.6810, 848.4492
903.8050, 821.6167
904.9290, 807.4810
906.0520, 725.1655
907.1760, 711.3843
908.2990, 632.6440
909.4230, 476.7397
910.5460, 410.5298
911.6690, 324.0479
912.7910, 340.2422
913.9140, 246.7397
915.0360, 240.9233
916.1590, 187.5024
917.2810, 141.0366
918.4030, 113.5210
919.5240, 72.50049
920.6460, 73.33008
921.7680, 24.64795
922.8890, 26.89258
924.0100, 36.06592
925.1310, 99.33838
926.2520, 161.9565
927.3730, 64.14453
928.4930, 26.35791
929.6130, 128.8979
930.7340, 16.42725
931.8540, 130.0396
932.9740, 98.67188
934.0930, 105.5400
935.2130, 162.4307
936.3320, 71.31006
937.4520, 163.5571
938.5710, 65.93066
939.6900, 68.80029
940.8090, 3.716797
941.9270, 89.64355
943.0460, 22.96875
944.1640, 78.24756
945.2820, 57.85938
946.4000, 160.2285
947.5180, 116.4624
948.6360, 205.0430
949.7530, 233.1606
950.8710, 295.2539
951.9880, 385.3184
953.1050, 499.3887
954.2220, 474.4106
955.3390, 691.4048
956.4550, 700.3779
957.5720, 827.3716
958.6880, 918.3540
959.8040, 1002.339
960.9200, 1055.311
962.0360, 1187.270
963.1520, 1186.213
964.2670, 1302.148
965.3820, 1316.081
966.4980, 1548.001
967.6130, 1760.920
968.7280, 2101.842
969.8420, 2227.749
970.9570, 2610.658
972.0710, 2993.559
973.1850, 3666.455
974.3000, 4325.349
975.4140, 5200.250
976.5270, 6394.150
977.6410, 7777.054
978.7540, 9399.948
979.8680, 11420.85
980.9810, 14280.75
982.0940, 17234.65
983.2070, 20611.55
984.3200, 24691.47
985.4320, 28992.38
986.5440, 33001.29
987.6570, 36589.22
988.7690, 38848.15
989.8810, 40220.09
990.9920, 40295.04
992.1040, 39718.99
993.2160, 38783.94
994.3270, 37650.89
995.4380, 36752.86
996.5490, 35121.83
997.6600, 32104.81
998.7710, 28598.76
999.8810, 24477.53
1000.991, 20675.49
1002.102, 17113.79
1003.212, 14003.93
1004.322, 11787.26
1005.431, 9914.964
1006.541, 8129.794
1007.651, 6730.568
1008.760, 5505.410
1009.869, 4407.745
1010.978, 3676.035
1012.087, 3053.215
1013.195, 2495.436
1014.304, 2060.987
1015.412, 1814.737
1016.521, 1507.327
1017.629, 1367.437
1018.737, 1129.850
1019.844, 986.2090
1020.952, 990.7622
1022.059, 779.2529
1023.167, 725.7681
1024.274, 719.3018
1025.381, 609.8579
1026.488, 592.4390
1027.594, 569.0396
1028.701, 372.6675
1029.807, 420.3262
1030.913, 371.0122
1032.019, 419.7246
1033.125, 221.4609
1034.231, 299.2358
1035.337, 257.0376
1036.442, 206.8691
1037.548, 195.7236
1038.653, 155.6074
1039.758, 219.5161
1040.863, 193.4517
1041.967, 177.4180
1043.072, 98.41260
1044.176, 141.4365
1045.280, 87.88623
1046.384, 223.5669
1047.488, 49.67383
1048.592, 142.8110
1049.696, 163.9756
1050.799, 110.1460
1051.903, 137.0928
1053.006, 62.22754
1054.109, 175.5059
1055.212, 192.9326
1056.314, 75.60205
1057.417, 30.16309
1058.519, 27.37842
1059.621, 28.34814
1060.724, 7.022949
1061.826, 51.88232
1062.927, 95.92041
1064.029, 36.93506
1065.130, 12.02441
1066.232, 43.13721
1067.333, 10.96826
1068.434, 25.48242
1069.535, 33.87793
1070.636, 0.3754880
1071.736, 50.32178
1072.837, 139.3022
1073.937, 35.70020
1075.037, 44.68799
1076.137, 18.43848
1077.237, 36.47461
1078.337, 19.34375
1079.436, 7.160645
1080.535, 41.92676
1081.635, 6.354980
1082.734, 18.68896
1083.833, 72.07666
1084.931, 0.5180660
1086.030, 94.01270
1087.128, 68.56250
1088.227, 100.1675
1089.325, 189.8276
1090.423, 124.5444
1091.521, 249.3169
1092.618, 290.1465
1093.716, 156.0332
1094.813, 128.9771
1095.911, 75.97949
1097.008, 340.0396
1098.105, 208.1587
1099.202, 163.3364
1100.298, 391.5742
1101.395, 190.8721
1102.491, 155.2300
1103.587, 205.6484
1104.683, 191.1279
1105.779, 298.6689
1106.875, 357.2715
1107.971, 208.9365
1109.066, 338.6631
1110.161, 342.4531
1111.256, 192.3066
1112.351, 229.2227
1113.446, 213.4795
1114.541, 383.2480
1115.636, 285.3584
1116.730, 334.5322
1117.824, 444.7715
1118.918, 404.0762
1120.012, 490.4463
1121.106, 510.8828
1122.200, 536.6660
1123.293, 512.9561
1124.387, 565.5928
1125.480, 588.2969
1126.573, 509.0684
1127.666, 534.9072
1128.759, 503.8164
1129.851, 511.2197
1130.944, 526.8447
1132.036, 562.9658
1133.128, 583.1611
1134.220, 638.4336
1135.312, 660.7930
1136.404, 565.2334
1137.495, 585.7588
1138.587, 595.3613
1139.678, 655.0391
1140.769, 632.7988
1141.860, 700.6328
1142.951, 759.5664
1144.041, 704.5918
1145.132, 729.7129
1146.222, 750.9336
1147.313, 802.2363
1148.403, 774.6260
1149.493, 837.0908
1150.582, 886.6279
1151.672, 872.2490
1152.761, 900.5840
1153.851, 929.7510
1154.940, 877.6289
1156.029, 849.5811
1157.118, 796.6123
1158.207, 808.7188
1159.295, 969.9043
1160.384, 852.1738
1161.472, 982.5156
1162.560, 882.9580
1163.648, 963.4902
1164.736, 1041.098
1165.824, 961.7852
1166.911, 993.5488
1167.999, 1067.387
1169.086, 1048.312
1170.173, 1080.320
1171.260, 1134.392
1172.347, 1069.592
1173.434, 1244.848
1174.520, 1180.181
1175.606, 1242.591
1176.693, 1220.079
1177.779, 1236.658
1178.865, 1376.317
1179.951, 1373.062
1181.036, 1270.897
1182.122, 1443.809
1183.207, 1253.811
1184.292, 1203.900
1185.377, 1373.084
1186.462, 1381.358
1187.547, 1514.723
1188.632, 1375.689
1189.716, 1508.858
1190.800, 1468.571
1191.885, 1480.316
1192.969, 1442.398
1194.052, 1549.454
1195.136, 1612.609
1196.220, 1570.772
1197.303, 1547.182
1198.387, 1663.608
1199.470, 1715.009
1200.553, 1525.783
1201.636, 1619.667
1202.718, 1660.071
1203.801, 1639.534
1204.883, 1677.751
1205.966, 1678.044
1207.048, 1648.423
1208.130, 1674.512
1209.211, 1678.792
1210.293, 1645.472
1211.375, 1746.750
1212.456, 1691.544
1213.537, 1782.417
1214.618, 1769.378
1215.699, 1813.396
1216.780, 1730.514
1217.861, 1794.710
1218.941, 1681.000
1220.022, 1842.368
1221.102, 1604.818
1222.182, 1736.348
1223.262, 1777.954
1224.342, 1779.637
1225.422, 1823.049
1226.501, 1813.238
1227.580, 1811.159
1228.660, 1760.170
1229.739, 1729.261
1230.818, 1818.430
1231.896, 1886.674
1232.975, 1779.996
1234.054, 1688.395
1235.132, 1824.873
1236.210, 1710.428
1237.288, 1740.071
1238.366, 1789.802
1239.444, 1778.606
1240.521, 1694.486
1241.599, 1735.440
1242.676, 1609.469
1243.753, 1612.575
1244.830, 1669.755
1245.907, 1642.016
1246.984, 1605.354
1248.061, 1620.766
1249.137, 1626.251
1250.214, 1599.810
1251.290, 1690.439
1252.366, 1593.142
1253.442, 1573.917
1254.517, 1556.837
1255.593, 1460.688
1256.668, 1488.682
1257.744, 1506.932
1258.819, 1506.076
1259.894, 1512.291
1260.969, 1495.576
1262.044, 1358.930
1263.118, 1490.354
1264.193, 1325.604
1265.267, 1450.166
1266.341, 1274.562
1267.415, 1270.261
1268.489, 1426.031
1269.563, 1332.501
1270.636, 1315.406
1271.710, 1185.004
1272.783, 1312.173
1273.856, 1241.069
1274.929, 1330.465
1276.002, 1221.175
1277.075, 1276.255
1278.147, 1251.622
1279.220, 1143.053
1280.292, 1019.033
1281.364, 1141.958
1282.436, 1093.262
1283.508, 1127.500
1284.580, 1135.243
1285.652, 1125.478
1286.723, 1095.342
1287.794, 1042.778
1288.865, 1000.608
1289.936, 999.6616
1291.007, 1010.192
1292.078, 959.2310
1293.149, 1051.512
1294.219, 992.1309
1295.289, 860.4751
1296.360, 875.8770
1297.430, 928.0991
1298.499, 852.4468
1299.569, 817.0063
1300.639, 821.4448
1301.708, 849.8916
1302.778, 815.6265
1303.847, 865.8657
1304.916, 764.9199
1305.985, 710.1143
1307.053, 595.1206
1308.122, 619.1484
1309.190, 582.1431
1310.259, 649.2402
1311.327, 672.8765
1312.395, 638.4922
1313.463, 572.3613
1314.531, 556.6548
1315.598, 711.9956
1316.666, 577.3838
1317.733, 511.8784
1318.800, 774.7637
1319.867, 673.3198
1320.934, 538.8975
1322.001, 598.5205
1323.067, 564.4463
1324.134, 393.1548
1325.200, 582.4346
1326.266, 541.2900
1327.333, 488.1284
1328.398, 435.0044
1329.464, 343.9307
1330.530, 393.9067
1331.595, 411.9355
1332.661, 503.0918
1333.726, 479.7363
1334.791, 338.4185
1335.856, 425.9258
1336.921, 344.2759
1337.985, 247.6084
1339.050, 393.7158
1340.114, 323.2861
1341.178, 295.0762
1342.242, 325.0430
1343.306, 284.8320
1344.370, 264.4175
1345.434, 281.3237
1346.497, 265.9180
1347.561, 282.6689
1348.624, 251.7510
1349.687, 262.8926
1350.750, 277.7695
1351.813, 274.6895
1352.876, 294.0981
1353.938, 285.1865
1355.000, 182.4121
1356.063, 241.4634
1357.125, 185.0527
1358.187, 236.5898
1359.249, 152.8418
1360.310, 209.4375
1361.372, 232.7104
1362.433, 270.8867
1363.495, 288.2280
1364.556, 201.6333
1365.617, 236.4961
1366.678, 137.8438
1367.738, 81.22705
1368.799, 247.6084
1369.859, 116.9902
1370.920, 183.0679
1371.980, 148.4976
1373.040, 127.5991
1374.100, 124.9570
1375.159, 122.8223
1376.219, 96.01562
1377.278, 126.4858
1378.338, 130.9585
1379.397, 91.45410
1380.456, 149.9731
1381.515, 78.39648
1382.574, 66.94580
1383.632, 72.45703
1384.691, 6.886230
1385.749, 145.8018
1386.807, 195.4141
1387.865, 125.9893
1388.923, 107.5898
1389.981, 88.21240
1391.039, 48.15576
1392.096, 114.4927
1393.154, 46.83545
1394.211, 110.8506
1395.268, 75.98779
1396.325, 16.31445
1397.382, 31.38330
1398.439, 83.62598
1399.495, 71.94678
1400.552, 63.70947
1401.608, 92.34619
1402.664, 8.460449
1403.720, 60.83252
1404.776, 8.789063
1405.832, 65.37354
1406.887, 52.04395
1407.943, 69.24658
1408.998, 54.69287
1410.053, 51.18359
1411.108, 14.29102
1412.163, 25.23486
1413.218, 61.22656
1414.272, 25.21191
1415.327, 31.79053
1416.381, 40.62402
1417.435, 100.9604
1418.489, 70.05420
1419.543, 14.30664
1420.597, 17.36963
1421.651, 27.94434
1422.704, 58.49658
1423.758, 44.04297
1424.811, 24.75635
1425.864, 27.06445
1426.917, 22.82666
1427.970, 0.6904300
1429.023, 51.81934
1430.075, 8.001953
1431.128, 16.17188
1432.180, 48.67676
1433.232, 3.549316
1434.284, 22.43848
1435.336, 39.40479
1436.388, 83.65967
1437.439, 29.33789
1438.491, 7.387695
1439.542, 30.47412
1440.593, 83.39307
1441.644, 106.2310
1442.695, 68.04736
1443.746, 34.84766
1444.797, 20.61523
1445.847, 39.35498
1446.898, 43.13037
1447.948, 86.82471
1448.998, 29.50049
1450.048, 62.15723
1451.098, 2.169922
1452.147, 43.16553
1453.197, 78.83008
1454.246, 81.61865
1455.296, 55.53174
1456.345, 108.4810
1457.394, 129.4653
1458.443, 55.48242
1459.491, 66.50391
1460.540, 146.5356
1461.588, 51.57715
1462.637, 15.36377
1463.685, 131.7017
1464.733, 13.76904
1465.781, 30.85254
1466.829, 62.95801
1467.876, 4.077637
1468.924, 100.1802
1469.971, 78.29785
1471.019, 78.43115
1472.066, 13.42627
1473.113, 107.6904
1474.160, 44.81201
1475.206, 87.95068
1476.253, 138.0996
1477.299, 191.2427
1478.346, 89.39600
1479.392, 116.5659
1480.438, 64.75244
1481.484, 20.94580
1482.529, 82.91455
1483.575, 144.1133
1484.620, 138.3267
1485.666, 114.2148
1486.711, 147.0508
1487.756, 93.25439
1488.801, 174.5962
1489.846, 24.37402
1490.891, 31.57373
1491.935, 147.9360
1492.980, 191.9019
1494.024, 146.2993
1495.068, 160.4053
1496.112, 86.05615
1497.156, 171.5410
1498.200, 48.44775
1499.243, 64.65576
1500.287, 108.9985
1501.330, 184.5063
1502.373, 150.5469
1503.416, 143.6987
1504.459, 153.7563
1505.502, 145.9565
1506.545, 59.78027
1507.587, 108.3203
1508.630, 149.0234
1509.672, 10.81201
1510.714, 95.76562
1511.756, 107.6221
1512.798, 161.7949
1513.840, 168.7666
1514.881, 133.2568
1515.923, 170.1211
1516.964, 202.0879
1518.005, 176.0171
1519.046, 200.1113
1520.087, 94.51416
1521.128, 177.0254
1522.169, 142.7178
1523.209, 98.77930
1524.249, 141.3599
1525.290, 102.7656
1526.330, 153.8086
1527.370, 87.40283
1528.410, 175.6289
1529.449, 209.3535
1530.489, 146.5645
1531.528, 128.8267
1532.568, 89.96045
1533.607, 211.6006
1534.646, 237.8667
1535.685, 101.4507
1536.724, 224.0708
1537.762, 178.7568
1538.801, 4.821777
1539.839, 122.3521
1540.878, 174.7637
1541.916, 277.2280
1542.954, 47.45166
1543.992, 121.7578
1545.029, 97.77295
1546.067, 106.5493
1547.104, 62.25098
1548.142, 71.73877
1549.179, 157.8638
1550.216, 43.87256
1551.253, 277.3345
1552.290, 56.98047
1553.326, 148.0386
1554.363, 173.4507
1555.399, 201.0913
1556.436, 219.4517
1557.472, 141.2017
1558.508, 187.0645
1559.544, 148.4346
1560.579, 70.60596
1561.615, 75.82715
1562.651, 145.8569
1563.686, 149.3354
1564.721, 101.8345
1565.756, 98.52490
1566.791, 100.2876
1567.826, 73.39111
1568.861, 99.10693
1569.895, 89.86328
1570.930, 58.94629
1571.964, 114.7241
1572.998, 130.0913
1574.032, 137.6421
1575.066, 68.12842
1576.100, 1.135254
1577.134, 68.64209
1578.167, 0.0000000E+00
##END=



