##NAMES=Mimetite
##RRUFFID=R050527
##IDEAL CHEMISTRY=Pb^2+^_5_(As^5+^O_4_)_3_Cl
##LOCALITY=Tsumeb mine, Tsumeb, Otavi District, Oshikoto, Namibia
##OWNER=RRUFF
##SOURCE=University of Arizona Mineral Museum
##DESCRIPTION=Yellow hexagonal prisms, monoclinic polytype
##STATUS=The identification of this mineral has been confirmed by X-ray diffraction and chemical analysis
##URL=rruff.info/R050527
##MEASURED CHEMISTRY=Pb_5.00_(As_1.00_O_4_)_3_Cl_1.00_
##PIN_ID=M00655
##ORIENTATION=Laser parallel to a* (1 0 0). Fiducial mark perpendicular to laser is parallel to c [0 0 1]
43.47600, 0.0000000E+00
44.72200, 0.8052060
45.96700, 6.113037
47.21200, 8.357635
48.45600, 20.16159
49.70100, 26.95169
50.94500, 24.59164
52.19000, 26.84286
53.43400, 31.75861
54.67800, 41.39163
55.92100, 40.41254
57.16500, 39.58194
58.40800, 53.91611
59.65200, 57.22900
60.89500, 40.86224
62.13700, 47.65955
63.38000, 39.67319
64.62300, 19.89911
65.86500, 10.33075
67.10700, 8.960083
68.34900, 4.778748
69.59100, 0.7793270
70.83300, 10.04486
72.07400, 9.699646
73.31600, 18.19016
74.55700, 9.521057
75.79800, 19.69641
77.03900, 11.71991
78.27900, 6.405121
79.52000, 18.67560
80.76000, 32.08859
82.00000, 96.63812
83.24000, 125.3165
84.48000, 207.1163
85.72000, 325.0305
86.95900, 435.0523
88.19900, 536.1755
89.43800, 683.3940
90.67700, 790.7047
91.91600, 964.1052
93.15400, 1140.594
94.39300, 1315.170
95.63100, 1617.831
96.86900, 1826.578
98.10700, 2115.408
99.34500, 2377.322
100.5820, 2566.317
101.8200, 2736.395
103.0570, 2776.554
104.2940, 2823.793
105.5310, 2835.113
106.7680, 2735.512
108.0040, 2635.990
109.2410, 2606.547
110.4770, 2564.182
111.7130, 2442.894
112.9490, 2406.682
114.1850, 2276.548
115.4200, 2246.489
116.6560, 2166.505
117.8910, 2128.587
119.1260, 2060.130
120.3610, 2025.867
121.5960, 1940.057
122.8300, 1928.279
124.0640, 1907.530
125.2990, 1915.808
126.5330, 1926.109
127.7670, 1875.434
129.0000, 1804.782
130.2340, 1880.151
131.4670, 1875.538
132.7000, 1832.937
133.9330, 1862.353
135.1660, 1887.797
136.3990, 1902.283
137.6310, 1919.810
138.8640, 1908.379
140.0960, 1920.439
141.3280, 1968.648
142.5600, 1931.349
143.7910, 1970.096
145.0230, 1994.888
146.2540, 2085.727
147.4850, 2159.610
148.7160, 2138.542
149.9470, 2137.518
151.1780, 2237.542
152.4080, 2213.614
153.6380, 2269.732
154.8690, 2328.897
156.0980, 2327.109
157.3280, 2388.369
158.5580, 2468.674
159.7870, 2445.028
161.0170, 2547.428
162.2460, 2543.875
163.4750, 2563.368
164.7030, 2680.908
165.9320, 2765.494
167.1600, 2880.125
168.3890, 2943.803
169.6170, 2963.279
170.8450, 2960.296
172.0730, 2936.111
173.3000, 2965.970
174.5280, 2902.874
175.7550, 2866.822
176.9820, 2822.815
178.2090, 2819.853
179.4350, 2689.933
180.6620, 2632.057
181.8880, 2574.224
183.1150, 2419.432
184.3410, 2301.687
185.5670, 2249.982
186.7920, 2174.319
188.0180, 2006.697
189.2430, 1932.117
190.4690, 1854.584
191.6940, 1754.295
192.9180, 1602.915
194.1430, 1472.536
195.3680, 1381.136
196.5920, 1289.850
197.8160, 1217.170
199.0400, 1178.881
200.2640, 1097.407
201.4880, 1080.953
202.7110, 1013.484
203.9350, 927.0029
205.1580, 916.4556
206.3810, 884.9006
207.6040, 828.2345
208.8270, 772.6714
210.0490, 745.2092
211.2710, 679.7971
212.4940, 651.2015
213.7160, 668.4832
214.9370, 533.9290
216.1590, 518.4137
217.3810, 533.9014
218.6020, 537.9313
219.8230, 477.2016
221.0440, 382.1494
222.2650, 436.7947
223.4860, 390.0463
224.7060, 371.8324
225.9260, 344.0031
227.1470, 326.2161
228.3670, 311.4736
229.5860, 282.7687
230.8060, 254.1049
232.0260, 259.4778
233.2450, 263.8928
234.4640, 242.3555
235.6830, 199.8612
236.9020, 182.4079
238.1200, 176.9924
239.3390, 178.6161
240.5570, 164.9430
241.7750, 150.9758
242.9930, 155.7126
244.2110, 141.4841
245.4290, 151.2894
246.6460, 143.1290
247.8630, 146.0005
249.0810, 124.9095
250.2980, 112.8531
251.5140, 91.83136
252.7310, 82.84338
253.9470, 85.89050
255.1640, 83.97064
256.3800, 78.08728
257.5960, 103.2427
258.8120, 87.42645
260.0270, 73.64282
261.2430, 59.89319
262.4580, 97.17285
263.6730, 86.48657
264.8880, 52.83142
266.1030, 95.20337
267.3170, 85.60474
268.5320, 68.03827
269.7460, 74.50159
270.9600, 69.27521
272.1740, 61.52545
273.3880, 77.07935
274.6010, 91.66040
275.8150, 102.2681
277.0280, 96.90186
278.2410, 111.5766
279.4540, 111.2537
280.6670, 131.9699
281.8790, 127.7139
283.0920, 146.4843
284.3040, 152.2817
285.5160, 200.1047
286.7280, 194.9534
287.9400, 292.8301
289.1510, 285.7334
290.3630, 366.6635
291.5740, 403.6199
292.7850, 546.6016
293.9960, 571.6083
295.2070, 642.6395
296.4170, 818.6960
297.6280, 981.7776
298.8380, 1067.885
300.0480, 1286.016
301.2580, 1491.171
302.4680, 1625.349
303.6770, 1951.549
304.8870, 2076.770
306.0960, 2304.014
307.3050, 2481.281
308.5140, 2618.571
309.7230, 2759.882
310.9310, 2959.214
312.1400, 3017.566
313.3480, 2986.938
314.5560, 3067.330
315.7640, 3001.741
316.9720, 2867.172
318.1790, 2697.622
319.3870, 2441.091
320.5940, 2373.579
321.8010, 2188.295
323.0080, 2138.820
324.2150, 2068.362
325.4210, 2064.921
326.6280, 2122.499
327.8340, 2185.094
329.0400, 2216.705
330.2460, 2247.343
331.4510, 2445.000
332.6570, 2483.661
333.8620, 2483.218
335.0680, 2690.911
336.2730, 2681.119
337.4780, 2799.332
338.6820, 2707.431
339.8870, 2662.875
341.0910, 2490.752
342.2950, 2416.666
343.5000, 2327.825
344.7030, 2125.237
345.9070, 2054.580
347.1110, 1852.217
348.3140, 1742.327
349.5170, 1541.033
350.7200, 1403.190
351.9230, 1270.162
353.1260, 1161.411
354.3290, 1029.422
355.5310, 971.2776
356.7330, 860.7294
357.9350, 781.9983
359.1370, 751.6685
360.3390, 693.8516
361.5400, 683.9822
362.7420, 611.2047
363.9430, 633.0342
365.1440, 590.0059
366.3450, 647.8839
367.5460, 656.7760
368.7460, 695.3943
369.9470, 712.7089
371.1470, 658.7104
372.3470, 698.4316
373.5470, 688.7480
374.7460, 633.9189
375.9460, 604.2875
377.1450, 557.9702
378.3450, 568.1201
379.5440, 541.2806
380.7430, 537.0894
381.9410, 505.1951
383.1400, 509.7294
384.3380, 558.4150
385.5370, 518.9385
386.7350, 582.0524
387.9320, 610.9150
389.1300, 662.7053
390.3280, 609.7224
391.5250, 680.2770
392.7220, 660.2123
393.9190, 660.5485
395.1160, 716.9761
396.3130, 719.3073
397.5100, 729.0443
398.7060, 785.3721
399.9020, 824.0397
401.0980, 925.4935
402.2940, 973.0962
403.4900, 1051.669
404.6860, 1183.650
405.8810, 1196.677
407.0760, 1262.850
408.2710, 1292.428
409.4660, 1304.151
410.6610, 1306.399
411.8550, 1235.332
413.0500, 1170.751
414.2440, 1097.880
415.4380, 1045.858
416.6320, 980.5464
417.8260, 905.4752
419.0190, 889.3127
420.2130, 876.0742
421.4060, 821.4696
422.5990, 789.3226
423.7920, 780.3529
424.9850, 736.5681
426.1770, 706.2139
427.3700, 679.5999
428.5620, 629.5157
429.7540, 574.4037
430.9460, 534.9241
432.1380, 483.1545
433.3290, 474.4584
434.5210, 457.7128
435.7120, 385.8448
436.9030, 338.8735
438.0940, 347.8976
439.2850, 304.1165
440.4750, 317.4458
441.6660, 273.7899
442.8560, 241.8524
444.0460, 246.1142
445.2360, 234.9418
446.4260, 210.7125
447.6160, 203.4993
448.8050, 147.5946
449.9940, 174.7818
451.1830, 138.9648
452.3720, 166.7565
453.5610, 116.7493
454.7500, 125.5220
455.9380, 112.2943
457.1260, 61.06659
458.3150, 49.83777
459.5020, 61.64508
460.6900, 54.41437
461.8780, 35.18262
463.0650, 12.96667
464.2530, 11.26776
465.4400, 13.49390
466.6270, 39.25397
467.8130, 33.01215
469.0000, 2.768372
470.1870, 14.52252
471.3730, 18.27429
472.5590, 2.3804000E-02
473.7450, 0.2294920
474.9310, 5.514221
476.1160, 25.74481
477.3020, 3.984863
478.4870, 16.28839
479.6720, 15.56982
480.8570, 11.85931
482.0420, 19.15594
483.2270, 3.462646
484.4110, 3.774353
485.5960, 10.09137
486.7800, 34.41589
487.9640, 12.75891
489.1480, 18.11108
490.3310, 5.474915
491.5150, 17.78723
492.6980, 5.099365
493.8810, 1.613464
495.0640, 5.680237
496.2470, 10.07141
497.4300, 16.33801
498.6120, 7.731689
499.7950, 2.945435
500.9770, 10.38641
502.1590, 35.83911
503.3410, 5.711731
504.5220, 17.77185
505.7040, 27.27185
506.8850, 11.79327
508.0660, 9.316650
509.2470, 25.86572
510.4280, 20.38342
511.6090, 4.169556
512.7890, 8.350952
513.9700, 19.92328
515.1500, 12.49719
516.3300, 9.143799
517.5100, 7.199524
518.6900, 16.46558
519.8690, 39.15082
521.0490, 22.60760
522.2280, 16.34900
523.4070, 4.087158
524.5860, 10.51306
525.7640, 12.30914
526.9430, 9.940430
528.1210, 17.88531
529.3000, 3.381165
530.4780, 5.519104
531.6560, 1.644836
532.8330, 13.75653
534.0110, 12.14172
535.1880, 2.061768
536.3650, 2.998779
537.5430, 0.9533690
538.7190, 6.872192
539.8960, 0.1362300
541.0730, 13.51868
542.2490, 23.52094
543.4250, 30.41675
544.6020, 1.655334
545.7780, 7.746216
546.9530, 9.160339
548.1290, 9.966553
549.3040, 1.2390000E-02
550.4800, 20.84296
551.6550, 6.662537
552.8300, 4.533691
554.0040, 4.248352
555.1790, 6.986755
556.3540, 4.245239
557.5280, 29.47430
558.7020, 17.18329
559.8760, 20.87946
561.0500, 25.56354
562.2230, 7.236267
563.3970, 21.89209
564.5700, 16.53577
565.7430, 12.16571
566.9160, 19.78033
568.0890, 16.38184
569.2620, 21.96930
570.4340, 23.54401
571.6070, 7.106384
572.7790, 13.72424
573.9510, 12.25073
575.1230, 13.69275
576.2940, 17.19006
577.4660, 20.67288
578.6370, 21.14209
579.8080, 15.59778
580.9790, 13.03821
582.1500, 12.87524
583.3210, 20.87045
584.4910, 15.26456
585.6620, 31.64310
586.8320, 41.00989
588.0020, 36.36566
589.1720, 20.71021
590.3410, 18.04065
591.5110, 18.28238
592.6800, 36.65683
593.8500, 24.94623
595.0190, 42.22241
596.1880, 46.48758
597.3560, 40.74170
598.5250, 56.98474
599.6930, 35.21674
600.8620, 43.43719
602.0300, 51.64667
603.1970, 37.84506
604.3650, 52.03229
605.5330, 62.99738
606.7000, 74.16266
607.8680, 53.31696
609.0350, 71.46036
610.2020, 61.59283
611.3680, 61.71448
612.5350, 57.82516
613.7010, 73.91541
614.8680, 48.99237
616.0340, 61.07065
617.2000, 82.25952
618.3660, 81.31631
619.5310, 73.86426
620.6970, 57.41599
621.8620, 57.09030
623.0270, 56.43033
624.1920, 41.34439
625.3570, 52.23370
626.5220, 47.88620
627.6860, 39.29529
628.8500, 48.78375
630.0140, 42.98737
631.1780, 26.72867
632.3420, 24.88330
633.5060, 22.59619
634.6700, 22.50507
635.8330, 19.14618
636.9960, 51.03546
638.1590, 26.08981
639.3220, 14.55750
640.4850, 44.21771
641.6470, 36.48773
642.8100, 22.25500
643.9720, 37.08514
645.1340, 37.83380
646.2960, 32.98767
647.4570, 20.01080
648.6190, 26.14001
649.7800, 13.26520
650.9420, 6.675171
652.1030, 9.822632
653.2640, 11.44006
654.4240, 8.769897
655.5850, 23.51135
656.7450, 21.40515
657.9060, 18.10797
659.0660, 23.50360
660.2260, 2.561707
661.3850, 9.367432
662.5450, 1.654236
663.7040, 6.349854
664.8640, 10.22156
666.0230, 2.352844
667.1820, 6.240234
668.3410, 4.751404
669.4990, 4.512695
670.6580, 4.385010
671.8160, 11.97437
672.9740, 9.563110
674.1320, 7.775818
675.2900, 11.59271
676.4480, 18.32269
677.6050, 3.846497
678.7630, 10.58258
679.9200, 13.57477
681.0770, 2.633484
682.2340, 6.653137
683.3900, 7.231079
684.5470, 16.84277
685.7030, 1.950745
686.8590, 3.213745
688.0150, 8.764160
689.1710, 16.85541
690.3270, 16.33362
691.4830, 10.28906
692.6380, 26.56384
693.7930, 19.35394
694.9480, 22.43805
696.1030, 34.67670
697.2580, 16.20660
698.4130, 32.49933
699.5670, 16.88531
700.7210, 19.35004
701.8750, 27.18329
703.0290, 33.56122
704.1830, 18.76385
705.3370, 40.78412
706.4900, 35.06812
707.6430, 34.22968
708.7970, 43.55518
709.9490, 38.91016
711.1020, 55.63428
712.2550, 76.64966
713.4070, 67.59302
714.5600, 74.58691
715.7120, 94.70447
716.8640, 70.92627
718.0160, 66.15900
719.1670, 79.19745
720.3190, 114.1263
721.4700, 105.0413
722.6210, 118.2384
723.7720, 102.2379
724.9230, 133.6719
726.0740, 144.1652
727.2250, 131.6427
728.3750, 147.8120
729.5250, 150.3675
730.6750, 181.9711
731.8250, 172.4443
732.9750, 171.7161
734.1240, 196.2080
735.2740, 244.7001
736.4230, 246.1918
737.5720, 261.6844
738.7210, 284.1404
739.8700, 278.6338
741.0190, 304.1278
742.1670, 328.6080
743.3150, 369.1064
744.4630, 407.6069
745.6110, 443.1082
746.7590, 514.6104
747.9070, 516.1157
749.0540, 529.6221
750.2020, 642.1329
751.3490, 735.6450
752.4960, 813.1586
753.6430, 927.6738
754.7890, 1062.191
755.9360, 1231.715
757.0820, 1427.242
758.2280, 1639.773
759.3740, 1874.309
760.5200, 2136.850
761.6660, 2343.396
762.8120, 2649.945
763.9570, 2859.499
765.1020, 2942.060
766.2470, 2991.629
767.3920, 2977.205
768.5370, 2783.791
769.6810, 2678.321
770.8260, 2406.846
771.9700, 2286.342
773.1140, 2217.843
774.2580, 2157.294
775.4020, 2047.902
776.5460, 2073.490
777.6890, 2129.893
778.8320, 2228.518
779.9750, 2329.150
781.1180, 2474.766
782.2610, 2643.416
783.4040, 2790.078
784.5460, 2952.756
785.6890, 3018.434
786.8310, 3025.134
787.9730, 3144.797
789.1150, 3188.380
790.2560, 3149.033
791.3980, 3157.731
792.5390, 3304.431
793.6810, 3535.189
794.8220, 3817.957
795.9630, 4300.730
797.1030, 5075.513
798.2440, 6091.052
799.3840, 7198.864
800.5240, 8854.664
801.6650, 10792.14
802.8040, 13078.99
803.9440, 15570.78
805.0840, 18364.66
806.2230, 20886.42
807.3630, 23053.30
808.5020, 24433.19
809.6410, 25493.29
810.7790, 25730.22
811.9180, 25623.18
813.0570, 25485.11
814.1950, 24826.04
815.3330, 23549.93
816.4710, 21862.88
817.6090, 19802.52
818.7470, 17063.46
819.8840, 14395.47
821.0220, 11930.47
822.1590, 9925.484
823.2960, 8243.494
824.4330, 7035.531
825.5690, 5988.450
826.7060, 5132.509
827.8420, 4409.574
828.9790, 3865.646
830.1150, 3467.730
831.2510, 3162.823
832.3860, 2780.927
833.5220, 2504.100
834.6570, 2351.221
835.7930, 2169.350
836.9280, 1957.486
838.0630, 1886.663
839.1980, 1775.823
840.3320, 1601.980
841.4670, 1589.225
842.6010, 1465.486
843.7350, 1363.677
844.8690, 1324.863
846.0030, 1245.056
847.1370, 1192.254
848.2700, 1130.462
849.4040, 1060.678
850.5370, 1032.902
851.6700, 973.1345
852.8030, 931.3741
853.9360, 873.7328
855.0680, 811.9862
856.2000, 767.2471
857.3330, 727.5164
858.4650, 703.7939
859.5970, 647.2996
860.7290, 642.5919
861.8600, 591.2866
862.9920, 580.5906
864.1230, 534.9000
865.2540, 521.2166
866.3850, 485.5405
867.5160, 446.8721
868.6460, 437.2092
869.7770, 430.5532
870.9070, 430.9025
872.0370, 399.2574
873.1670, 381.6180
874.2970, 357.9841
875.4270, 350.3560
876.5570, 328.7014
877.6860, 357.6777
878.8150, 307.1404
879.9440, 303.5343
881.0730, 320.9340
882.2020, 281.3522
883.3300, 266.1208
884.4590, 281.5367
885.5870, 238.6939
886.7150, 255.1205
887.8430, 213.5525
888.9710, 255.9898
890.0990, 229.5760
891.2260, 226.0239
892.3530, 208.9799
893.4810, 202.4383
894.6080, 184.9019
895.7340, 186.7264
896.8610, 160.2003
897.9880, 163.6793
899.1140, 144.4357
900.2400, 138.7343
901.3660, 129.2728
902.4920, 103.7762
903.6180, 114.2587
904.7430, 117.7672
905.8690, 124.2808
906.9940, 90.81006
908.1190, 86.33392
909.2440, 103.8629
910.3690, 78.39734
911.4930, 82.93634
912.6180, 97.48016
913.7420, 65.02948
914.8660, 61.58331
915.9900, 43.15167
917.1140, 63.06049
918.2380, 55.69421
919.3610, 83.13147
920.4850, 62.10577
921.6080, 79.36908
922.7310, 85.11383
923.8540, 68.77472
924.9760, 37.39716
926.0990, 62.12134
927.2210, 18.72418
928.3440, 20.36346
929.4660, 37.48773
930.5880, 15.09869
931.7090, 17.78424
932.8310, 21.40192
933.9520, 10.03479
935.0740, 33.00385
936.1950, 12.63269
937.3160, 12.35773
938.4360, 0.9164430
939.5570, 1.276672
940.6780, 22.62366
941.7980, 0.5615840
942.9180, 23.44012
944.0380, 10.88062
945.1580, 3.204102
946.2780, 3.550232
947.3970, 12.10632
948.5170, 25.35394
949.6360, 4.014526
950.7550, 13.41510
951.8740, 1.897095
952.9930, 14.72113
954.1110, 29.19690
955.2300, 18.86993
956.3480, 18.54474
957.4660, 20.15808
958.5840, 27.83649
959.7020, 24.58643
960.8190, 6.358276
961.9370, 25.04199
963.0540, 8.727051
964.1710, 19.41351
965.2880, 12.10126
966.4050, 25.79022
967.5220, 3.519531
968.6380, 7.171082
969.7550, 29.16388
970.8710, 21.06964
971.9870, 2.236755
973.1030, 0.5111080
974.2190, 15.18365
975.3340, 4.120667
976.4500, 4.425232
977.5650, 0.7299800
978.6800, 34.96570
979.7950, 7.661987
980.9100, 19.36481
982.0250, 17.13580
983.1390, 17.83362
984.2530, 1.531860
985.3680, 13.23053
986.4820, 11.92950
987.5950, 24.37128
988.7090, 7.318237
989.8230, 20.00787
990.9360, 0.6976930
992.0490, 22.38751
993.1620, 6.922668
994.2750, 14.77325
995.3880, 10.53918
996.5010, 12.14441
997.6130, 0.8278810
998.7250, 16.51105
999.8370, 5.193970
1000.949, 10.87659
1002.061, 6.558838
1003.173, 31.24078
1004.284, 14.92218
1005.396, 22.60309
1006.507, 6.283508
1007.618, 10.96338
1008.729, 21.64453
1009.839, 6.323120
1010.950, 10.99890
1012.060, 1.326904
1013.171, 19.34344
1014.281, 18.01294
1015.391, 0.6815800
1016.500, 6.651001
1017.610, 16.01208
1018.719, 12.32581
1019.829, 2.328613
1020.938, 4.981995
1022.047, 2.634277
1023.156, 1.714539
1024.264, 16.93390
1025.373, 7.418884
1026.481, 10.22241
1027.589, 5.862488
1028.697, 4.498779
1029.805, 6.135132
1030.913, 3.767700
1032.020, 2.601227
1033.128, 10.97430
1034.235, 1.643860
1035.342, 6.259796
1036.449, 13.12582
1037.556, 5.478302
1038.663, 7.080750
1039.769, 3.681519
1040.875, 9.280273
1041.981, 10.04349
1043.087, 8.472717
1044.193, 15.06619
1045.299, 17.65781
1046.404, 18.24753
1047.510, 11.83527
1048.615, 5.421051
1049.720, 0.9955440
1050.825, 13.41745
1051.930, 7.851318
1053.034, 17.29434
1054.139, 5.751587
1055.243, 13.21472
1056.347, 5.309814
1057.451, 6.831329
1058.555, 4.350128
1059.658, 10.13474
1060.762, 7.369354
1061.865, 2.129425
1062.968, 24.36475
1064.071, 6.856476
1065.174, 13.34497
1066.277, 9.831024
1067.380, 1.314514
1068.482, 13.79227
1069.584, 7.267487
1070.686, 10.26086
1071.788, 25.18915
1072.890, 3.633392
1073.992, 3.085358
1075.093, 4.530457
1076.194, 10.97263
1077.295, 11.21317
1078.396, 17.61383
1079.497, 15.16794
1080.598, 1.562897
1081.698, 17.86005
1082.799, 3.719788
1083.899, 12.69104
1084.999, 6.921997
1086.099, 4.525360
1087.199, 24.86133
1088.298, 27.24518
1089.398, 6.373871
1090.497, 41.99603
1091.596, 11.36301
1092.695, 10.72629
1093.794, 19.08578
1094.892, 33.44232
1095.991, 26.79590
1097.089, 37.06592
1098.187, 24.49396
1099.285, 37.83844
1100.383, 22.12268
1101.481, 5.461121
1102.579, 7.793793
1103.676, 24.12152
1104.773, 15.41138
1105.870, 33.72342
1106.967, 23.04260
1108.064, 29.27838
1109.161, 35.50183
1110.257, 28.79871
1111.353, 49.10550
1112.449, 20.40915
1113.545, 13.70963
1114.641, 27.00626
1115.737, 32.30063
1116.832, 39.59180
1117.928, 57.87988
1119.023, 33.16473
1120.118, 33.33401
1121.213, 56.61267
1122.308, 32.88901
1123.402, 48.16232
1124.497, 60.43259
1125.591, 20.47842
1126.685, 53.74246
1127.779, 47.60687
1128.873, 36.86465
1129.967, 47.11942
1131.060, 32.37103
1132.153, 37.61951
1133.247, 35.86493
1134.340, 26.10715
1135.433, 28.34653
1136.525, 26.62161
1137.618, 25.81580
1138.710, 25.04578
1139.802, 23.29578
1140.895, 29.51093
1141.987, 24.73148
1143.078, 32.38748
1144.170, 43.52777
1145.261, 33.74109
1146.353, 35.95135
1147.444, 44.14539
1148.535, 29.99161
1149.626, 25.19308
1150.716, 25.65555
1151.807, 47.85095
1152.897, 34.04343
1153.988, 49.23282
1155.078, 42.27570
1156.168, 57.46140
1157.257, 48.13913
1158.347, 38.31674
1159.436, 65.49139
1160.526, 31.30719
1161.615, 52.47644
1162.704, 56.64273
1163.793, 60.53369
1164.881, 62.31656
1165.970, 62.99341
1167.058, 50.14841
1168.147, 59.32187
1169.235, 42.47131
1170.323, 45.61804
1171.410, 39.75150
1172.498, 28.91638
1173.585, 27.05502
1174.673, 27.19098
1175.760, 55.32416
1176.847, 47.45471
1177.934, 42.58261
1179.020, 56.70789
1180.107, 27.82047
1181.193, 43.59442
1182.279, 40.57587
1183.365, 48.89417
1184.451, 38.61627
1185.537, 41.78857
1186.623, 57.53848
1187.708, 45.58264
1188.793, 33.65518
1189.878, 47.63544
1190.963, 40.73105
1192.048, 44.79175
1193.133, 41.36975
1194.217, 43.46231
1195.302, 30.48148
1196.386, 19.56970
1197.470, 19.39117
1198.554, 22.41354
1199.638, 21.49539
1200.721, 23.48544
1201.805, 41.47391
1202.888, 57.54971
1203.971, 42.36578
1205.054, 54.14575
1206.137, 56.09741
1207.219, 73.13745
1208.302, 56.18002
1209.384, 64.25446
1210.466, 49.37476
1211.548, 38.87280
1212.630, 57.93326
1213.712, 51.25455
1214.794, 38.28915
1215.875, 41.39545
1216.956, 58.64832
1218.037, 49.70233
1219.118, 60.75482
1220.199, 62.86911
1221.280, 38.91858
1222.360, 67.89667
1223.441, 53.87656
1224.521, 41.92163
1225.601, 42.96542
1226.681, 51.00781
1227.760, 64.05029
1228.840, 31.09137
1229.919, 30.13110
1230.999, 52.17480
1232.078, 33.91107
1233.157, 47.75562
1234.236, 43.79501
1235.314, 28.80185
1236.393, 52.06549
1237.471, 56.09674
1238.549, 34.12729
1239.627, 42.15723
1240.705, 31.18625
1241.783, 43.21771
1242.860, 46.24609
1243.938, 46.19843
1245.015, 50.41418
1246.092, 63.43784
1247.169, 39.46027
1248.246, 52.48434
1249.323, 40.50455
1250.399, 37.54382
1251.475, 26.74020
1252.552, 21.79282
1253.628, 39.82874
1254.703, 15.88031
1255.779, 41.89185
1256.855, 37.91068
1257.930, 24.93042
1259.005, 50.95984
1260.080, 39.97763
1261.155, 35.99445
1262.230, 31.01038
1263.305, 36.02530
1264.379, 33.08914
1265.454, 27.10226
1266.528, 23.11447
1267.602, 45.12579
1268.676, 39.13626
1269.750, 4.150177
1270.823, 34.15881
1271.897, 45.16653
1272.970, 22.17606
1274.043, 34.68344
1275.116, 22.69174
1276.189, 24.72665
1277.261, 15.80414
1278.334, 25.83105
1279.406, 23.83804
1280.478, 42.84753
1281.550, 45.86728
1282.622, 33.87793
1283.694, 22.90042
1284.766, 6.907806
1285.837, 24.93817
1286.908, 14.94641
1287.979, 17.95395
1289.050, 18.96085
1290.121, 30.07080
1291.192, 17.07883
1292.262, 27.08627
1293.333, 19.13092
1294.403, 11.14941
1295.473, 23.16080
1296.543, 26.17172
1297.613, 34.20187
1298.682, 12.21637
1299.752, 10.23065
1300.821, 1.244965
1301.890, 22.29889
1302.959, 18.31201
1304.028, 18.32455
1305.096, 27.35651
1306.165, 19.36804
1307.233, 13.40771
1308.301, 20.43060
1309.370, 15.44107
1310.437, 23.45267
1311.505, 20.46875
1312.573, 4.487793
1313.640, 9.470337
1314.708, 24.55017
1315.775, 3.590790
1316.842, 18.61636
1317.908, 4.653107
1318.975, 16.70288
1320.042, 14.73346
1321.108, 16.97110
1322.174, 14.00394
1323.240, 11.03674
1324.306, 10.54803
1325.372, 0.1025090
1326.438, 7.135010
1327.503, 7.168671
1328.568, 6.209534
1329.634, 16.24374
1330.699, 7.282654
1331.763, 32.32153
1332.828, 13.36172
1333.893, 2.596832
1334.957, 22.44522
1336.021, 15.48752
1337.085, 4.529968
1338.149, 1.399170
1339.213, 0.6429440
1340.277, 13.68640
1341.340, 8.729858
1342.404, 13.80142
1343.467, 10.86908
1344.530, 5.965210
1345.593, 24.36993
1346.655, 20.42380
1347.718, 9.502167
1348.780, 17.55853
1349.843, 11.61496
1350.905, 1.671753
1351.967, 15.72900
1353.028, 21.82559
1354.090, 14.88272
1355.152, 23.28918
1356.213, 22.34653
1357.274, 15.41046
1358.335, 6.464813
1359.396, 27.51910
1360.457, 2.574188
1361.517, 6.638214
1362.578, 6.694336
1363.638, 4.249390
1364.698, 11.82703
1365.758, 19.90372
1366.818, 14.99277
1367.878, 25.10391
1368.937, 7.213379
1369.997, 6.315857
1371.056, 14.38092
1372.115, 3.564270
1373.174, 15.48981
1374.232, 10.54382
1375.291, 7.597656
1376.350, 16.65158
1377.408, 4.705658
1378.466, 3.240356
1379.524, 1.085114
1380.582, 4.865936
1381.640, 0.9171750
1382.697, 15.96841
1383.754, 13.01984
1384.812, 21.07138
1385.869, 6.123047
1386.926, 11.17480
1387.983, 15.22665
1389.039, 13.27866
1390.096, 11.33047
1391.152, 0.6175840
1392.208, 15.43399
1393.264, 11.48499
1394.320, 27.53210
1395.376, 21.57895
1396.431, 7.625916
1397.487, 31.65775
1398.542, 15.69983
1399.597, 24.74179
1400.652, 8.216278
1401.707, 35.82336
1402.762, 2.862976
1403.816, 1.098206
1404.871, 4.938934
1405.925, 31.97430
1406.979, 26.00934
1408.033, 7.044189
1409.086, 9.078735
1410.140, 6.113037
1411.194, 27.14694
1412.247, 4.178436
1413.300, 36.21173
1414.353, 29.24469
1415.406, 28.27725
1416.458, 1.663086
1417.511, 22.51889
1418.563, 24.56216
1419.616, 1.605988
1420.668, 8.646088
1421.720, 20.76477
1422.772, 10.82294
1423.823, 6.852844
1424.875, 15.97769
1425.926, 29.09204
1426.977, 16.22144
1428.028, 1.227875
1429.079, 15.25677
1430.130, 18.27792
1431.180, 6.297211
1432.231, 17.33676
1433.281, 4.339874
1434.331, 8.458038
1435.381, 28.43539
1436.431, 15.45016
1437.481, 15.45441
1438.530, 16.45667
1439.580, 7.310333
1440.629, 28.45807
1441.678, 7.531036
1442.727, 16.60910
1443.776, 8.695465
1444.824, 5.780670
1445.873, 20.86658
1446.921, 3.076294
1447.969, 32.00897
1449.017, 16.09662
1450.065, 28.18488
1451.113, 17.15186
1452.160, 12.23041
1453.208, 36.22778
1454.255, 10.31604
1455.302, 34.40451
1456.349, 34.48749
1457.396, 28.57266
1458.443, 20.65799
1459.489, 25.71643
1460.535, 13.80164
1461.582, 18.88348
1462.628, 22.95935
1463.674, 6.015076
1464.719, 28.08557
1465.765, 29.87839
1466.810, 23.95712
1467.856, 7.030731
1468.901, 8.098419
1469.946, 1.926178
1470.991, 5.002869
1472.035, 13.05148
1473.080, 6.850555
1474.124, 16.85828
1475.169, 19.92923
1476.213, 31.98538
1477.257, 24.05640
1478.300, 4.127472
1479.344, 15.12646
1480.388, 4.803101
1481.431, 20.25812
1482.474, 12.32910
1483.517, 27.64191
1484.560, 32.66156
1485.603, 18.58289
1486.645, 11.64285
1487.688, 26.68134
1488.730, 25.71680
1489.772, 8.737823
1490.814, 8.797791
1491.856, 5.683929
1492.898, 1.436005
1493.939, 1.717773
1494.981, 2.742981
1496.022, 11.79346
1497.063, 16.76837
1498.104, 20.81607
1499.145, 15.82645
1500.186, 24.79578
1501.226, 22.84167
1502.266, 26.46902
1503.307, 37.90948
1504.347, 37.94186
1505.387, 38.93173
1506.426, 53.55310
1507.466, 70.60315
1508.505, 85.65247
1509.545, 77.70209
1510.584, 68.73413
1511.623, 56.78015
1512.662, 43.82419
1513.700, 37.86615
1514.739, 27.83600
1515.777, 63.87579
1516.815, 41.85281
1517.854, 33.71750
1518.892, 51.81097
1519.929, 26.76041
1520.967, 28.77710
1522.004, 47.67752
1523.042, 17.65607
1524.079, 40.61560
1525.116, 47.60925
1526.153, 33.57758
1527.190, 39.56689
1528.226, 30.40912
1529.263, 42.07642
1530.299, 37.49384
1531.335, 36.59485
1532.371, 31.54208
1533.407, 41.48477
1534.443, 30.41956
1535.478, 30.78851
1536.514, 34.28204
1537.549, 25.20682
1538.584, 24.12109
1539.619, 25.02322
1540.654, 9.914978
1541.689, 1.201538
1542.723, 13.71686
1543.757, 13.62820
1544.792, 14.58563
1545.826, 0.5384520
1546.860, 10.48953
1547.893, 18.46906
1548.927, 0.4630430
1549.960, 1.461090
1550.994, 0.4656070
1552.027, 33.47882
1553.060, 27.22107
1554.093, 28.38577
1555.126, 17.93674
1556.158, 11.06625
1557.191, 28.04190
1558.223, 0.2510680
1559.255, 25.89658
1560.287, 5.697144
1561.319, 5.146088
1562.350, 0.1933900
1563.382, 8.367188
1564.413, 0.0000000E+00
##END=



