##NAMES=Partheite
##RRUFFID=R130077
##IDEAL CHEMISTRY=Ca_2_(Si_4_Al_4_)O_15_(OH)_2_&#183;4H_2_O
##LOCALITY=Denezhkin Kamen, Urals Region, Russia
##OWNER=Biljana Lazic
##SOURCE=Biljana Lazic
##DESCRIPTION=Prismatic crystals. Data from Lazic et al (2012)
##STATUS=The identification of this mineral has been confirmed by X-ray diffraction.
##URL=rruff.info/R130077
112.8340, 110.5160
113.3060, 61.33920
113.7790, 96.78800
114.2510, 162.7370
114.7240, 210.1850
115.1960, 237.3840
115.6690, 269.9580
116.1410, 347.0320
116.6140, 496.7300
117.0860, 683.8040
117.5590, 854.5030
118.0310, 1022.080
118.5040, 1203.780
118.9760, 1450.350
119.4490, 1786.300
119.9210, 2094.620
120.3940, 2413.570
120.8660, 2651.770
121.3390, 2900.340
121.8110, 3043.170
122.2840, 3032.370
122.7560, 2996.060
123.2290, 2945.510
123.7010, 2766.960
124.1740, 2505.910
124.6460, 2397.110
125.1190, 2297.060
125.5910, 2269.380
126.0640, 2073.580
126.5360, 1857.280
127.0090, 1712.100
127.4810, 1479.930
127.9540, 1226.880
128.4260, 1062.320
128.8990, 914.2720
129.3710, 680.7210
129.8440, 524.0450
130.3160, 460.3690
130.7890, 415.8180
131.2610, 303.5160
131.7340, 197.7150
132.2060, 128.2880
132.6790, 100.1120
133.1510, 81.93590
133.6240, 73.88510
134.0960, 67.70860
134.5690, 14.15490
135.0410, 16.95960
135.5140, 31.26430
135.9860, 54.69400
136.4590, 71.87370
136.9310, 117.4290
137.4040, 183.4830
137.8760, 300.9130
138.3490, 416.7180
138.8210, 493.3970
139.2940, 571.7020
139.7660, 672.3820
140.2390, 840.5620
140.7110, 983.9910
141.1840, 1044.920
141.6560, 1286.230
142.1290, 1571.910
142.6010, 1859.590
143.0740, 2187.020
143.5460, 2565.690
144.0190, 2917.370
144.4910, 3169.800
144.9640, 3353.230
145.4360, 3218.290
145.9080, 3214.220
146.3810, 3041.270
146.8530, 2942.580
147.3260, 2740.760
147.7980, 2576.440
148.2710, 2479.620
148.7430, 2418.550
149.2160, 2386.350
149.6880, 2368.780
150.1610, 2383.090
150.6330, 2453.890
151.1060, 2534.450
151.5780, 2656.000
152.0510, 2709.430
152.5230, 2812.230
152.9960, 2935.790
153.4680, 3113.090
153.9410, 3305.770
154.4130, 3470.700
154.8860, 3671.010
155.3580, 3777.690
155.8310, 3897.620
156.3030, 4054.300
156.7760, 4006.230
157.2480, 3970.780
157.7210, 3860.960
158.1930, 3706.890
158.6660, 3522.320
159.1380, 3313.630
159.6110, 3110.180
160.0830, 2921.990
160.5560, 2749.920
161.0280, 2691.340
161.5010, 2651.770
161.9730, 2542.580
162.4460, 2485.510
162.9180, 2496.060
163.3910, 2508.120
163.8630, 2504.170
164.3360, 2521.730
164.8080, 2625.530
165.2810, 2833.710
165.7530, 3025.270
166.2260, 3334.570
166.6980, 3670.250
167.1710, 4178.810
167.6430, 4805.240
168.1160, 5490.540
168.5880, 6121.850
169.0610, 6555.280
169.5330, 6681.830
170.0060, 6365.880
170.4780, 5566.560
170.9510, 4665.740
171.4230, 3813.800
171.8960, 2982.230
172.3680, 2461.160
172.8410, 2106.210
173.3130, 1791.270
173.7860, 1539.200
174.2580, 1367.130
174.7310, 1251.310
175.2030, 1158.990
175.6760, 1066.790
176.1480, 978.5960
176.6210, 978.0260
177.0930, 915.8310
177.5660, 862.7600
178.0380, 885.5650
178.5110, 923.6200
178.9830, 921.6740
179.4560, 939.9790
179.9280, 991.1590
180.4010, 1034.710
180.8730, 1065.890
181.3460, 1103.070
181.8180, 1111.750
182.2910, 1112.560
182.7630, 1111.740
183.2360, 1023.170
183.7080, 915.2220
184.1810, 834.6510
184.6530, 791.2060
185.1260, 742.8860
185.5980, 656.5660
186.0710, 569.6200
186.5430, 527.3000
187.0160, 459.6050
187.4880, 383.5350
187.9610, 329.4640
188.4330, 316.0190
188.9060, 254.8240
189.3780, 235.3790
189.8510, 212.8080
190.3230, 185.8630
190.7960, 192.0430
191.2680, 194.8480
191.7410, 163.7770
192.2130, 195.2070
192.6860, 200.6370
193.1580, 218.4420
193.6300, 273.9960
194.1030, 326.0510
194.5750, 301.9810
195.0480, 362.0350
195.5200, 442.5900
195.9930, 504.3950
196.4650, 593.0750
196.9380, 684.7540
197.4100, 733.0590
197.8830, 879.3640
198.3550, 956.7940
198.8280, 967.7230
199.3000, 1031.530
199.7730, 992.2080
200.2450, 988.8870
200.7180, 944.3170
201.1900, 843.8720
201.6630, 765.8020
202.1350, 754.6060
202.6080, 751.7860
203.0800, 687.9660
203.5530, 615.1460
204.0250, 594.4500
204.4980, 535.6300
204.9700, 503.3100
205.4430, 454.9890
205.9150, 440.6690
206.3880, 374.8490
206.8600, 330.2790
207.3330, 328.0830
207.8050, 304.3880
208.2780, 257.3180
208.7500, 245.2480
209.2230, 249.6770
209.6950, 252.2320
210.1680, 236.5370
210.6400, 223.9660
211.1130, 284.2710
211.5850, 347.2010
212.0580, 363.3810
212.5300, 410.1850
213.0030, 449.7400
213.4750, 475.9200
213.9480, 577.4750
214.4200, 684.2790
214.8930, 783.4590
215.3650, 879.0140
215.8380, 1093.820
216.3100, 1284.500
216.7830, 1482.300
217.2550, 1715.110
217.7280, 1971.660
218.2000, 2269.590
218.6730, 2493.150
219.1450, 2650.330
219.6180, 2823.760
220.0900, 2824.560
220.5630, 2773.870
221.0350, 2674.800
221.5080, 2594.730
221.9800, 2292.150
222.4530, 1994.830
222.9250, 1793.640
223.3980, 1593.320
223.8700, 1415.750
224.3430, 1292.300
224.8150, 1160.480
225.2880, 1008.290
225.7600, 934.3430
226.2330, 846.6480
226.7050, 765.3270
227.1780, 696.3820
227.6500, 678.5620
228.1230, 623.1170
228.5950, 625.2960
229.0680, 609.7260
229.5400, 619.9060
230.0130, 642.3350
230.4850, 661.7650
230.9580, 695.6950
231.4300, 728.0000
231.9030, 788.8040
232.3750, 811.1090
232.8480, 865.2890
233.3200, 924.2190
233.7930, 956.7730
234.2650, 912.7030
234.7380, 872.2580
235.2100, 786.1880
235.6830, 681.9920
236.1550, 602.1720
236.6280, 540.2270
237.1000, 482.2810
237.5730, 416.9610
238.0450, 360.1410
238.5180, 252.9460
238.9900, 227.1250
239.4630, 203.5550
239.9350, 178.3600
240.4080, 151.5400
240.8800, 151.2190
241.3520, 162.1490
241.8250, 151.4540
242.2970, 156.7580
242.7700, 188.8130
243.2420, 177.3680
243.7150, 206.6730
244.1870, 178.7270
244.6600, 223.4070
245.1320, 248.3370
245.6050, 257.5170
246.0770, 295.5710
246.5500, 327.3760
247.0220, 323.0560
247.4950, 341.4850
247.9670, 413.1650
248.4400, 453.3450
248.9120, 435.4000
249.3850, 477.9540
249.8570, 450.5090
250.3300, 523.6890
250.8020, 547.4940
251.2750, 558.5480
251.7470, 563.4780
252.2200, 581.6580
252.6920, 569.2130
253.1650, 566.0170
253.6370, 537.4470
254.1100, 503.5020
254.5820, 495.6810
255.0550, 473.1110
255.5270, 481.1660
256.0000, 467.3460
256.4720, 473.4000
256.9450, 427.5800
257.4170, 477.6350
257.8900, 451.1900
258.3620, 465.4940
258.8350, 461.7990
259.3070, 504.2290
259.7800, 534.1590
260.2520, 530.4630
260.7250, 552.6430
261.1970, 564.3230
261.6700, 532.6270
262.1420, 482.1820
262.6150, 471.9870
263.0870, 361.9170
263.5600, 295.2210
264.0320, 302.7760
264.5050, 265.9560
264.9770, 221.8850
265.4500, 182.0650
265.9220, 153.9950
266.3950, 133.3000
266.8670, 101.4800
267.3400, 73.28430
267.8120, 74.21410
268.2850, 31.71900
268.7570, 84.76680
269.2300, 68.81470
269.7020, 83.86250
270.1750, 31.91040
270.6470, 35.33330
271.1200, 42.75600
271.5920, 73.92880
272.0650, 110.3520
272.5370, 91.27450
273.0100, 51.82240
273.4820, 79.49520
273.9550, 124.2930
274.4270, 120.8410
274.9000, 149.1390
275.3720, 141.6870
275.8450, 156.6090
276.3170, 141.5320
276.7900, 164.4550
277.2620, 259.0030
277.7350, 271.6760
278.2070, 251.3480
278.6800, 266.3960
279.1520, 285.5690
279.6250, 281.6170
280.0970, 289.4150
280.5700, 358.5880
281.0420, 357.5100
281.5150, 378.4330
281.9870, 419.9810
282.4600, 438.6540
282.9320, 472.5770
283.4050, 521.6250
283.8770, 555.6720
284.3500, 605.0950
284.8220, 649.0180
285.2950, 667.4410
285.7670, 713.4890
286.2400, 810.0360
286.7120, 879.8340
287.1850, 937.8820
287.6570, 969.8050
288.1300, 1026.350
288.6020, 1007.900
289.0740, 1000.820
289.5470, 998.3710
290.0190, 1066.290
290.4920, 1075.840
290.9640, 1031.390
291.4370, 997.9380
291.9090, 1007.240
292.3820, 1032.780
292.8540, 1026.460
293.3270, 1032.380
293.7990, 1015.180
294.2720, 1029.100
294.7440, 1093.770
295.2170, 1113.200
295.6890, 1151.370
296.1620, 1221.290
296.6340, 1247.090
297.1070, 1292.260
297.5790, 1387.560
298.0520, 1473.610
298.5240, 1545.780
298.9970, 1660.200
299.4690, 1821.000
299.9420, 2019.920
300.4140, 2163.100
300.8870, 2359.640
301.3590, 2582.940
301.8320, 2818.740
302.3040, 3093.790
302.7770, 3384.710
303.2490, 3616.380
303.7220, 3833.180
304.1940, 3985.980
304.6670, 4154.150
305.1390, 4311.820
305.6120, 4353.870
306.0840, 4409.920
306.5570, 4445.590
307.0290, 4451.770
307.5020, 4525.690
307.9740, 4471.610
308.4470, 4582.280
308.9190, 4675.080
309.3920, 4713.510
309.8640, 4798.180
310.3370, 4905.730
310.8090, 4954.400
311.2820, 4963.700
311.7540, 4916.620
312.2270, 4816.790
312.6990, 4731.590
313.1720, 4547.260
313.6440, 4391.690
314.1170, 4150.860
314.5890, 4081.660
315.0620, 3932.200
315.5340, 3664.750
316.0070, 3472.800
316.4790, 3356.720
316.9520, 3162.150
317.4240, 2984.070
317.8970, 2863.120
318.3690, 2766.040
318.8420, 2653.840
319.3140, 2511.630
319.7870, 2409.810
320.2590, 2321.860
320.7320, 2153.150
321.2040, 2135.200
321.6770, 2048.000
322.1490, 2007.420
322.6220, 1900.090
323.0940, 1737.140
323.5670, 1636.440
324.0390, 1603.740
324.5120, 1574.540
324.9840, 1512.330
325.4570, 1443.010
325.9290, 1412.430
326.4020, 1379.980
326.8740, 1256.530
327.3470, 1204.450
327.8190, 1186.870
328.2920, 1117.170
328.7640, 1060.590
329.2370, 1000.640
329.7090, 911.1870
330.1820, 910.7350
330.6540, 880.5330
331.1270, 843.2060
331.5990, 931.0040
332.0720, 910.6760
332.5440, 741.7240
333.0170, 684.3970
333.4890, 682.9450
333.9620, 680.3680
334.4340, 655.7910
334.9070, 623.4630
335.3790, 609.3860
335.8520, 573.0590
336.3240, 548.2320
336.7970, 546.1550
337.2690, 515.9530
337.7410, 544.1250
338.2140, 544.4230
338.6860, 526.3460
339.1590, 506.3940
339.6310, 475.8170
340.1040, 464.1150
340.5760, 472.2870
341.0490, 466.0850
341.5210, 470.2580
341.9940, 431.4310
342.4660, 425.3540
342.9390, 378.9010
343.4110, 403.1990
343.8840, 418.1220
344.3560, 372.9200
344.8290, 388.2180
345.3010, 403.1410
345.7740, 404.1880
346.2460, 386.9860
346.7190, 375.6590
347.1910, 398.8320
347.6640, 407.0050
348.1360, 381.3030
348.6090, 403.9750
349.0810, 436.7730
349.5540, 417.5710
350.0260, 462.4940
350.4990, 452.7920
350.9710, 451.4650
351.4440, 466.2620
351.9160, 457.9350
352.3890, 481.3580
352.8610, 519.4060
353.3340, 531.5790
353.8060, 535.6270
354.2790, 581.2990
354.7510, 612.0970
355.2240, 577.3950
355.6960, 640.1930
356.1690, 625.4910
356.6410, 630.2890
357.1140, 674.9610
357.5860, 676.0090
358.0590, 675.0570
358.5310, 683.6050
359.0040, 700.4030
359.4760, 756.0760
359.9490, 780.1230
360.4210, 789.1710
360.8940, 789.7190
361.3660, 785.6420
361.8390, 786.9400
362.3110, 811.6130
362.7840, 864.4100
363.2560, 834.3330
363.7290, 799.5060
364.2010, 855.8040
364.6740, 921.4770
365.1460, 878.4000
365.6190, 865.9480
366.0910, 874.8700
366.5640, 872.2930
367.0360, 881.2160
367.5090, 893.0140
367.9810, 896.1870
368.4540, 867.8590
368.9260, 856.0320
369.3990, 859.3300
369.8710, 819.2530
370.3440, 790.6760
370.8160, 777.2240
371.2890, 710.8960
371.7610, 737.8190
372.2340, 686.8670
372.7060, 716.9150
373.1790, 674.4630
373.6510, 698.1360
374.1240, 649.5580
374.5960, 596.9810
375.0690, 565.1540
375.5410, 529.3270
376.0140, 534.6250
376.4860, 522.0480
376.9590, 467.9700
377.4310, 432.2680
377.9040, 402.5660
378.3760, 389.2390
378.8490, 363.5370
379.3210, 324.9600
379.7940, 273.7570
380.2660, 303.5550
380.7390, 258.8530
381.2110, 237.0260
381.6840, 246.1990
382.1560, 211.2470
382.6290, 201.5450
383.1010, 214.0920
383.5740, 245.1400
384.0460, 270.0630
384.5180, 268.9860
384.9910, 257.2840
385.4630, 279.7060
385.9360, 351.3790
386.4080, 392.5520
386.8810, 388.4750
387.3530, 402.0230
387.8260, 505.1960
388.2980, 549.1180
388.7710, 539.1660
389.2430, 579.5890
389.7160, 673.5120
390.1880, 656.4350
390.6610, 704.2330
391.1330, 727.7800
391.6060, 788.2030
392.0780, 859.0010
392.5510, 896.0490
393.0230, 916.9720
393.4960, 964.3950
393.9680, 1064.190
394.4410, 1083.620
394.9130, 1086.660
395.3860, 1111.340
395.8580, 1229.630
396.3310, 1281.810
396.8030, 1251.350
397.2760, 1345.150
397.7480, 1482.450
398.2210, 1456.750
398.6930, 1441.920
399.1660, 1483.220
399.6380, 1516.270
400.1110, 1523.940
400.5830, 1493.490
401.0560, 1464.030
401.5280, 1447.580
402.0010, 1362.630
402.4730, 1231.300
402.9460, 1105.980
403.4180, 1072.020
403.8910, 1003.950
404.3630, 942.6200
404.8360, 806.9180
405.3080, 727.0900
405.7810, 699.5130
406.2530, 677.6860
406.7260, 653.9840
407.1980, 597.5320
407.6710, 597.2050
408.1430, 601.1270
408.6160, 577.9250
409.0880, 560.5980
409.5610, 566.6460
410.0330, 574.0690
410.5060, 546.4920
410.9780, 526.0390
411.4510, 592.8370
411.9230, 636.7600
412.3960, 685.3080
412.8680, 681.2310
413.3410, 735.0290
413.8130, 768.0760
414.2860, 871.7490
414.7580, 925.1720
415.2310, 961.0950
415.7030, 999.0180
416.1760, 1029.190
416.6480, 1056.110
417.1210, 1098.160
417.5930, 1164.330
418.0660, 1106.510
418.5380, 936.3050
419.0110, 858.9780
419.4830, 770.1500
419.9560, 802.5730
420.4280, 738.1210
420.9010, 704.1690
421.3730, 638.4670
421.8460, 648.5150
422.3180, 528.3120
422.7910, 546.3600
423.2630, 480.7830
423.7360, 458.8310
424.2080, 418.2540
424.6810, 387.1770
425.1530, 361.2240
425.6260, 351.7720
426.0980, 371.1950
426.5710, 339.1180
427.0430, 270.2910
427.5160, 273.8390
427.9880, 295.2610
428.4610, 287.5590
428.9330, 251.9820
429.4060, 280.1550
429.8780, 271.3280
430.3510, 296.3750
430.8230, 282.6730
431.2960, 272.8460
431.7680, 249.5190
432.2410, 277.4420
432.7130, 322.6150
433.1850, 295.4120
433.6580, 295.5850
434.1300, 341.8830
434.6030, 329.0560
435.0750, 331.9790
435.5480, 377.7770
436.0200, 394.9490
436.4930, 407.6220
436.9650, 423.7950
437.4380, 467.0930
437.9100, 515.2660
438.3830, 534.3140
438.8550, 538.3620
439.3280, 639.5340
439.8000, 688.7070
440.2730, 758.8800
440.7450, 788.8030
441.2180, 827.3510
441.6900, 927.8990
442.1630, 1020.070
442.6350, 1122.240
443.1080, 1244.040
443.5800, 1324.840
444.0530, 1449.760
444.5250, 1591.560
444.9980, 1697.860
445.4700, 1826.660
445.9430, 1943.700
446.4150, 2075.000
446.8880, 2255.670
447.3600, 2219.600
447.8330, 2269.900
448.3050, 2266.190
448.7780, 2221.370
449.2500, 2014.540
449.7230, 1828.710
450.1950, 1745.630
450.6680, 1598.310
451.1400, 1451.860
451.6130, 1278.530
452.0850, 1126.950
452.5580, 1028.250
453.0300, 956.1720
453.5030, 847.4690
453.9750, 744.1420
454.4480, 693.3150
454.9200, 625.6130
455.3930, 546.4110
455.8650, 533.8330
456.3380, 494.0060
456.8100, 460.1790
457.2830, 502.1020
457.7550, 430.6500
458.2280, 373.6980
458.7000, 433.8700
459.1730, 371.7930
459.6450, 345.2160
460.1180, 342.6390
460.5900, 368.1870
461.0630, 375.1100
461.5350, 373.4070
462.0080, 357.4550
462.4800, 396.0030
462.9530, 439.8010
463.4250, 462.0990
463.8980, 449.5220
464.3700, 456.4440
464.8430, 508.9920
465.3150, 494.2900
465.7880, 497.9630
466.2600, 532.7610
466.7330, 555.1840
467.2050, 580.8560
467.6780, 630.7790
468.1500, 589.3270
468.6230, 650.3750
469.0950, 668.7980
469.5680, 667.5960
470.0400, 662.8930
470.5130, 706.4410
470.9850, 704.4890
471.4580, 714.0370
471.9300, 705.5850
472.4030, 662.1330
472.8750, 688.6800
473.3480, 703.3530
473.8200, 684.6510
474.2930, 697.0740
474.7650, 766.6220
475.2380, 885.7950
475.7100, 913.3430
476.1830, 908.5150
476.6550, 847.0630
477.1280, 728.9860
477.6000, 713.4090
478.0730, 698.4570
478.5450, 676.8800
479.0180, 694.1770
479.4900, 742.3500
479.9620, 740.7730
480.4350, 705.1960
480.9070, 725.9940
481.3800, 706.7920
481.8520, 739.4640
482.3250, 763.8870
482.7970, 757.3100
483.2700, 776.1080
483.7420, 795.0310
484.2150, 824.8280
484.6870, 862.7510
485.1600, 867.6740
485.6320, 884.8470
486.1050, 922.6450
486.5770, 994.0680
487.0500, 1112.240
487.5220, 1085.660
487.9950, 1123.710
488.4670, 1249.760
488.9400, 1284.560
489.4120, 1307.980
489.8850, 1396.280
490.3570, 1461.200
490.8300, 1590.000
491.3020, 1711.800
491.7750, 1746.970
492.2470, 1882.270
492.7200, 2067.060
493.1920, 2231.110
493.6650, 2394.910
494.1370, 2622.580
494.6100, 2900.130
495.0820, 3171.300
495.5550, 3410.350
496.0270, 3646.650
496.5000, 3942.320
496.9720, 4331.370
497.4450, 4806.290
497.9170, 5237.720
498.3900, 5660.510
498.8620, 6090.940
499.3350, 6660.360
499.8070, 7051.910
500.2800, 7350.200
500.7520, 7567.630
501.2250, 7886.430
501.6970, 7673.600
502.1700, 7551.020
502.6420, 7311.070
503.1150, 6904.870
503.5870, 6525.540
504.0600, 6094.090
504.5320, 5564.010
505.0050, 5108.810
505.4770, 4720.610
505.9500, 4327.400
506.4220, 3899.950
506.8950, 3518.620
507.3670, 3254.550
507.8400, 2985.470
508.3120, 2752.770
508.7850, 2562.070
509.2570, 2371.240
509.7300, 2284.660
510.2020, 2175.580
510.6750, 2019.010
511.1470, 1876.800
511.6200, 1765.730
512.0920, 1728.780
512.5650, 1666.820
513.0370, 1580.000
513.5100, 1474.790
513.9820, 1455.470
514.4550, 1444.010
514.9270, 1403.810
515.4000, 1335.360
515.8720, 1257.530
516.3450, 1244.580
516.8170, 1235.130
517.2900, 1191.800
517.7620, 1178.720
518.2350, 1159.770
518.7070, 1129.320
519.1800, 1112.740
519.6520, 1036.290
520.1250, 1026.960
520.5970, 1039.140
521.0700, 964.0590
521.5420, 976.1070
522.0150, 950.0300
522.4870, 1015.080
522.9600, 963.1260
523.4320, 929.5490
523.9050, 998.4710
524.3770, 934.8940
524.8500, 930.4420
525.3220, 981.7400
525.7940, 998.7880
526.2670, 968.0860
526.7400, 943.0080
527.2120, 993.6810
527.6850, 976.1040
528.1570, 976.1520
528.6290, 972.8250
529.1020, 993.9980
529.5740, 1043.170
530.0470, 1073.590
530.5190, 1090.640
530.9920, 1104.690
531.4640, 1102.860
531.9370, 1106.910
532.4090, 1179.080
532.8820, 1205.380
533.3540, 1211.180
533.8270, 1220.730
534.2990, 1265.650
534.7720, 1319.450
535.2440, 1297.120
535.7170, 1392.170
536.1890, 1433.340
536.6620, 1440.390
537.1340, 1398.560
537.6070, 1467.980
538.0790, 1545.410
538.5520, 1651.450
539.0240, 1727.750
539.4970, 1731.920
539.9690, 1791.470
540.4420, 1909.270
540.9140, 1976.690
541.3870, 2021.740
541.8590, 2034.790
542.3320, 2082.210
542.8040, 2177.010
543.2770, 2264.930
543.7490, 2324.730
544.2220, 2342.780
544.6940, 2399.330
545.1670, 2509.620
545.6390, 2602.300
546.1120, 2597.840
546.5840, 2598.520
547.0570, 2631.940
547.5290, 2781.110
548.0020, 2794.790
548.4740, 2770.580
548.9470, 2813.510
549.4190, 2851.430
549.8920, 2848.100
550.3640, 2855.400
550.8370, 2808.320
551.3090, 2733.370
551.7820, 2668.790
552.2540, 2726.220
552.7270, 2552.390
553.1990, 2506.560
553.6720, 2514.730
554.1440, 2473.410
554.6170, 2380.460
555.0890, 2281.250
555.5620, 2167.180
556.0340, 2109.970
556.5070, 2091.400
556.9790, 2024.440
557.4520, 1905.990
557.9240, 1789.920
558.3970, 1755.960
558.8690, 1718.890
559.3420, 1681.680
559.8140, 1547.110
560.2870, 1474.780
560.7590, 1416.700
561.2320, 1338.630
561.7040, 1325.920
562.1770, 1260.350
562.6490, 1213.640
563.1220, 1211.570
563.5940, 1159.110
564.0670, 1114.910
564.5390, 1021.210
565.0120, 911.6330
565.4840, 874.3060
565.9570, 858.9790
566.4290, 864.5260
566.9020, 788.6990
567.3740, 701.7470
567.8470, 748.5450
568.3190, 716.2180
568.7920, 667.2660
569.2640, 641.5630
569.7370, 645.7360
570.2090, 652.5340
570.6820, 631.0820
571.1540, 602.3800
571.6270, 576.6770
572.0990, 579.7250
572.5720, 591.6480
573.0440, 561.3210
573.5170, 527.1190
573.9890, 471.6670
574.4610, 451.0890
574.9340, 469.6370
575.4060, 451.1850
575.8790, 414.1080
576.3520, 437.7810
576.8240, 433.9540
577.2960, 385.3760
577.7690, 395.6740
578.2410, 431.0970
578.7140, 399.3950
579.1860, 371.1930
579.6590, 389.7410
580.1310, 354.2880
580.6040, 337.2110
581.0760, 344.1340
581.5490, 365.9320
582.0210, 357.2300
582.4940, 375.1530
582.9660, 337.0750
583.4390, 312.1230
583.9110, 339.6710
584.3840, 338.0940
584.8560, 323.7670
585.3290, 308.6900
585.8010, 306.2380
586.2740, 317.7850
586.7460, 307.7080
587.2190, 277.0060
587.6910, 272.8040
588.1640, 276.3520
588.6360, 285.1500
589.1090, 321.6970
589.5810, 313.6200
590.0540, 279.4180
590.5260, 296.7160
590.9990, 265.2640
591.4710, 299.4370
591.9440, 286.1090
592.4160, 285.9070
592.8890, 285.8300
593.3610, 282.7530
593.8340, 302.6760
594.3060, 281.2240
594.7790, 254.0210
595.2510, 299.3190
595.7240, 309.1170
596.1960, 273.4150
596.6690, 278.9630
597.1410, 279.0100
597.6140, 281.1830
598.0860, 277.9810
598.5590, 247.9040
599.0310, 254.9520
599.5040, 248.5000
599.9760, 274.6720
600.4490, 274.5950
600.9210, 283.2680
601.3940, 271.8160
601.8660, 254.6140
602.3390, 262.6620
602.8110, 254.0840
603.2840, 270.5070
603.7560, 286.6800
604.2290, 297.9780
604.7010, 302.6510
605.1740, 279.1990
605.6460, 296.8710
606.1190, 289.5440
606.5910, 339.3420
607.0640, 312.7650
607.5360, 311.1880
608.0090, 315.4860
608.4810, 342.5330
608.9540, 315.5810
609.4260, 340.6290
609.8990, 375.4270
610.3710, 361.3500
610.8440, 349.7730
611.3160, 387.9450
611.7890, 371.7430
612.2610, 398.0410
612.7340, 423.8390
613.2060, 435.8870
613.6790, 403.3100
614.1510, 400.9820
614.6240, 441.0300
615.0960, 467.2030
615.5690, 449.1260
616.0410, 453.6740
616.5140, 499.7220
616.9860, 482.1440
617.4590, 485.8170
617.9310, 460.4900
618.4040, 484.0380
618.8760, 530.8360
619.3490, 534.5090
619.8210, 473.5560
620.2940, 559.2290
620.7660, 549.1520
621.2390, 533.8250
621.7110, 596.6230
622.1840, 585.0460
622.6560, 606.0930
623.1280, 598.7660
623.6010, 642.9390
624.0730, 642.4870
624.5460, 625.0350
625.0180, 650.7080
625.4910, 698.6300
625.9630, 719.3030
626.4360, 737.8510
626.9080, 728.1490
627.3810, 735.1970
627.8530, 763.3700
628.3260, 766.6670
628.7980, 807.5900
629.2710, 790.3880
629.7430, 810.8110
630.2160, 862.8590
630.6880, 857.4070
631.1610, 872.3290
631.6330, 893.1270
632.1060, 968.4250
632.5780, 941.9730
633.0510, 964.5210
633.5230, 980.6940
633.9960, 911.1160
634.4680, 980.5390
634.9410, 1007.840
635.4130, 997.2600
635.8860, 1004.680
636.3580, 971.4810
636.8310, 1004.400
637.3030, 943.3260
637.7760, 923.3740
638.2480, 895.5470
638.7210, 873.9700
639.1930, 856.2680
639.6660, 854.3150
640.1380, 829.6130
640.6110, 796.5360
641.0830, 789.2090
641.5560, 824.0070
642.0280, 806.8050
642.5010, 738.6020
642.9730, 726.1500
643.4460, 676.5730
643.9180, 647.6210
644.3910, 641.4190
644.8630, 598.9670
645.3360, 576.8890
645.8080, 535.0620
646.2810, 536.2350
646.7530, 547.7830
647.2260, 504.5810
647.6980, 495.1290
648.1710, 493.0510
648.6430, 418.9740
649.1160, 457.2720
649.5880, 400.1950
650.0610, 407.6180
650.5330, 390.9160
651.0060, 392.9630
651.4780, 366.0110
651.9510, 359.3090
652.4230, 293.9820
652.8960, 325.2800
653.3680, 311.7030
653.8410, 302.2500
654.3130, 298.5480
654.7860, 320.3460
655.2580, 301.2690
655.7310, 256.8170
656.2030, 248.1150
656.6760, 260.0370
657.1480, 256.5850
657.6210, 239.7580
658.0930, 222.8060
658.5660, 210.8540
659.0380, 204.1520
659.5110, 203.9490
659.9830, 228.8720
660.4560, 183.6700
660.9280, 218.9680
661.4010, 189.3910
661.8730, 186.6890
662.3460, 158.7370
662.8180, 133.5340
663.2910, 128.7070
663.7630, 171.2550
664.2360, 185.3030
664.7080, 133.3510
665.1810, 156.5240
665.6530, 143.1960
666.1260, 150.4940
666.5980, 120.0420
667.0710, 130.5900
667.5430, 144.1380
668.0160, 155.0610
668.4880, 127.7330
668.9610, 129.2810
669.4330, 102.8290
669.9060, 131.1270
670.3780, 158.4250
670.8510, 137.2230
671.3230, 132.6450
671.7950, 152.8180
672.2680, 121.4910
672.7400, 75.53880
673.2130, 95.21170
673.6850, 136.6350
674.1580, 143.3070
674.6300, 136.2300
675.1030, 126.6530
675.5750, 118.4510
676.0480, 134.9990
676.5200, 146.7970
676.9930, 137.3440
677.4650, 139.5170
677.9380, 126.0650
678.4100, 163.1130
678.8830, 165.2860
679.3550, 162.8330
679.8280, 180.3810
680.3000, 125.3040
680.7730, 124.9770
681.2450, 178.6500
681.7180, 179.9480
682.1900, 182.7450
682.6630, 176.0430
683.1350, 120.2160
683.6080, 269.6390
684.0800, 149.1870
684.5530, 201.3600
685.0250, 171.5320
685.4980, 194.3300
685.9700, 222.1280
686.4430, 198.5510
686.9150, 208.5990
687.3880, 233.2720
687.8600, 256.6940
688.3330, 248.2420
688.8050, 228.6650
689.2780, 267.8380
689.7500, 273.6360
690.2230, 259.5580
690.6950, 265.7310
691.1680, 269.5290
691.6400, 293.2020
692.1130, 304.3750
692.5850, 298.1730
693.0580, 315.2200
693.5300, 336.3930
694.0030, 351.6910
694.4750, 346.6140
694.9480, 352.9120
695.4200, 380.3350
695.8930, 384.8830
696.3650, 411.5550
696.8380, 432.2280
697.3100, 444.6510
697.7830, 476.8240
698.2550, 435.7470
698.7280, 473.4200
699.2000, 461.9670
699.6730, 494.5150
700.1450, 509.1880
700.6180, 509.8610
701.0900, 538.2840
701.5630, 546.4570
702.0350, 642.7540
702.5080, 579.4270
702.9800, 600.3500
703.4530, 651.2730
703.9250, 631.5710
704.3980, 690.9940
704.8700, 714.2910
705.3430, 720.4640
705.8150, 797.0120
706.2880, 809.1850
706.7600, 859.1080
707.2330, 861.4060
707.7050, 946.4530
708.1780, 964.0010
708.6500, 1016.170
709.1230, 1091.970
709.5950, 1171.640
710.0680, 1242.940
710.5400, 1338.990
711.0130, 1376.160
711.4850, 1447.710
711.9580, 1549.760
712.4300, 1608.430
712.9030, 1680.600
713.3750, 1760.900
713.8480, 1842.450
714.3200, 1895.120
714.7930, 1922.300
715.2650, 1941.470
715.7380, 1895.140
716.2100, 1876.810
716.6820, 1821.740
717.1550, 1754.410
717.6280, 1725.710
718.1000, 1650.760
718.5730, 1552.680
719.0450, 1431.730
719.5180, 1366.650
719.9900, 1335.820
720.4620, 1233.740
720.9350, 1121.170
721.4070, 1078.590
721.8800, 1015.140
722.3520, 913.1860
722.8250, 920.6090
723.2970, 870.6570
723.7700, 890.3300
724.2420, 820.8770
724.7150, 763.0500
725.1870, 783.9730
725.6600, 708.1460
726.1320, 714.4440
726.6050, 723.6170
727.0770, 666.4140
727.5500, 703.9620
728.0220, 677.1350
728.4950, 655.3080
728.9670, 661.3560
729.4400, 638.9040
729.9120, 635.3260
730.3850, 660.9990
730.8570, 612.0470
731.3300, 640.3450
731.8020, 608.3930
732.2750, 621.5660
732.7470, 665.3640
733.2200, 692.0360
733.6920, 669.4590
734.1650, 672.1320
734.6370, 661.3050
735.1100, 661.6030
735.5820, 665.7760
736.0550, 690.6980
736.5270, 720.4960
737.0000, 735.6690
737.4720, 738.2170
737.9450, 725.5150
738.4170, 713.8120
738.8900, 726.8600
739.3620, 753.1580
739.8350, 762.2060
740.3070, 762.8790
740.7800, 740.4270
741.2520, 733.3490
741.7250, 783.1470
742.1970, 774.9450
742.6700, 739.3680
743.1420, 736.0410
743.6150, 727.3390
744.0870, 740.7610
744.5600, 713.3090
745.0320, 699.1070
745.5050, 673.7800
745.9770, 677.5780
746.4500, 685.2510
746.9220, 610.5480
747.3950, 584.4710
747.8670, 575.7690
748.3400, 574.8170
748.8120, 547.6150
749.2850, 532.1630
749.7570, 539.7100
750.2300, 517.6330
750.7020, 489.6810
751.1750, 511.3540
751.6470, 498.9020
752.1200, 454.2000
752.5920, 490.6220
753.0650, 496.9200
753.5370, 441.0930
754.0100, 449.0160
754.4820, 485.1890
754.9550, 490.7370
755.4270, 412.4090
755.9000, 384.9570
756.3720, 439.1300
756.8450, 448.0530
757.3170, 410.9760
757.7900, 397.5240
758.2620, 451.8210
758.7350, 438.6190
759.2070, 458.6670
759.6800, 461.4650
760.1520, 443.0130
760.6250, 522.6860
761.0970, 483.9830
761.5700, 468.5310
762.0420, 524.4540
762.5150, 502.6270
762.9870, 491.0500
763.4600, 471.5980
763.9320, 488.6450
764.4050, 546.8180
764.8770, 522.6160
765.3490, 521.4140
765.8220, 570.8370
766.2940, 606.8850
766.7670, 597.4320
767.2400, 553.7300
767.7120, 582.0280
768.1840, 616.9510
768.6570, 606.4990
769.1290, 634.4220
769.6020, 674.9690
770.0740, 681.7670
770.5470, 686.5650
771.0190, 718.7380
771.4920, 770.1610
771.9640, 746.3340
772.4370, 733.0060
772.9090, 802.0540
773.3820, 850.7270
773.8540, 856.1500
774.3270, 825.0730
774.7990, 852.2460
775.2720, 900.1680
775.7440, 901.0910
776.2170, 867.8890
776.6890, 858.4370
777.1620, 841.4850
777.6340, 851.6580
778.1070, 845.0800
778.5790, 785.7530
779.0520, 796.5510
779.5240, 798.0990
779.9970, 730.5220
780.4690, 704.0700
780.9420, 649.3670
781.4140, 658.6650
781.8870, 602.9630
782.3590, 570.1360
782.8320, 573.1840
783.3040, 510.7320
783.7770, 487.1540
784.2490, 528.2020
784.7220, 622.6250
785.1940, 381.9230
785.6670, 343.9710
786.1390, 340.6440
786.6120, 326.6910
787.0840, 351.7390
787.5570, 296.9120
788.0290, 297.3350
788.5020, 217.6330
788.9740, 262.4310
789.4470, 243.7290
789.9190, 148.5260
790.3920, 206.9490
790.8640, 219.4970
791.3370, 209.5450
791.8090, 191.7180
792.2820, 167.1410
792.7540, 138.5630
793.2270, 154.6110
793.6990, 146.6590
794.1720, 137.0820
794.6440, 123.3800
795.1170, 121.6770
795.5890, 131.4750
796.0620, 97.64820
796.5340, 131.4460
797.0070, 136.1190
797.4790, 65.41660
797.9520, 71.71450
798.4240, 60.26230
798.8970, 130.6850
799.3690, 149.6080
799.8420, 50.15590
800.3140, 69.95360
800.7870, 76.00150
801.2590, 78.04930
801.7320, 28.09720
802.2040, 28.77000
802.6770, 91.69290
803.1490, 87.11560
803.6220, 95.53850
804.0940, 91.33630
804.5670, 41.63420
805.0390, 69.18200
805.5120, 35.10490
805.9840, 79.27770
806.4570, 62.20040
806.9290, 74.49830
807.4020, 77.04610
807.8740, 102.7190
808.3470, 75.51680
808.8190, 51.81470
809.2920, 80.23740
809.7640, 44.37610
810.2370, 53.37480
810.7090, 44.99850
811.1820, 57.87230
811.6540, 31.74600
812.1270, 78.74480
812.5990, 66.36840
813.0720, 43.99220
813.5440, 43.11580
814.0160, 46.61450
814.4890, 58.73830
814.9610, 41.48690
815.4340, 35.98570
815.9060, 65.48450
816.3790, 30.98320
816.8510, 34.73180
817.3240, 38.98060
817.7960, 51.60420
818.2690, 30.85300
818.7410, 16.85170
819.2140, 29.22530
819.6860, 15.97410
820.1590, 10.47280
820.6310, 10.22160
821.1040, 38.72030
821.5760, 47.71900
822.0490, 41.84270
822.5210, 66.09140
822.9940, 66.46510
823.4660, 95.08870
823.9390, 118.8380
824.4110, 90.08620
824.8840, 86.46000
825.3560, 99.20870
825.8290, 86.95740
826.3010, 71.83120
826.7740, 69.82980
827.2460, 73.95350
827.7190, 55.82730
828.1910, 58.20090
828.6640, 68.47300
829.1360, 60.09960
829.6090, 44.60120
830.0810, 34.60280
830.5540, 44.47940
831.0260, 70.10600
831.4990, 64.35750
831.9710, 68.10910
832.4440, 62.36070
832.9160, 56.11230
833.3890, 50.61390
833.8610, 26.61550
834.3340, 48.99210
834.8060, 53.49370
835.2790, 57.12020
835.7510, 72.49680
836.2240, 28.74840
836.6960, 0.000000
837.1690, 45.00160
837.6410, 88.37820
838.1140, 75.00480
838.5860, 35.88130
839.0590, 40.13290
839.5310, 60.38450
840.0040, 45.51110
840.4760, 51.38770
840.9490, 73.63930
841.4210, 54.01590
841.8940, 17.51750
842.3660, 42.76900
842.8390, 86.89560
843.3110, 102.1470
843.7840, 77.52370
844.2560, 52.15030
844.7290, 72.90190
845.2010, 50.77840
845.6740, 54.40500
846.1460, 58.78160
846.6190, 43.90820
847.0910, 67.65980
847.5640, 77.32750
848.0360, 41.97970
848.5090, 46.75700
848.9810, 68.65920
849.4540, 58.93640
849.9260, 62.33870
850.3990, 60.11580
850.8710, 39.01810
851.3440, 84.17040
851.8160, 93.44760
852.2890, 35.84970
852.7610, 44.50210
853.2340, 88.40430
853.7060, 73.93140
854.1790, 78.33370
854.6510, 88.61100
855.1240, 98.13820
855.5960, 94.91540
856.0690, 83.44260
856.5410, 75.71980
857.0140, 98.49710
857.4860, 84.39930
857.9590, 64.17650
858.4310, 87.95370
858.9040, 62.60600
859.3760, 58.25460
859.8490, 74.52220
860.3210, 65.53980
860.7940, 75.55740
861.2660, 102.3250
861.7390, 92.46740
862.2110, 89.48500
862.6830, 77.87760
863.1560, 61.77000
863.6280, 68.41260
864.1010, 42.55530
864.5730, 46.32280
865.0460, 55.09030
865.5180, 189.6080
865.9910, 119.7500
866.4630, 55.31340
866.9360, 25.91980
867.4080, 39.65120
867.8810, 39.38270
868.3530, 68.73910
868.8260, 84.09560
869.2980, 106.9520
869.7710, 89.68330
870.2430, 66.41480
870.7160, 85.89620
871.1880, 62.37770
871.6610, 40.60910
872.1330, 48.46560
872.6060, 71.32190
873.0780, 58.17830
873.5510, 52.65980
874.0230, 61.64120
874.4960, 60.87270
874.9680, 48.72910
875.4410, 93.21060
875.9130, 62.19200
876.3860, 49.17330
876.8580, 65.15480
877.3310, 68.26120
877.8030, 79.74270
878.2760, 37.59910
878.7480, 43.58060
879.2210, 55.68700
879.6930, 41.66850
880.1660, 62.77480
880.6380, 69.92700
881.1110, 53.85310
881.5830, 60.77930
882.0560, 82.33060
882.5280, 125.6320
883.0010, 82.55790
883.4730, 93.35900
883.9460, 91.66020
884.4180, 81.83640
884.8910, 50.63760
885.3630, 105.6890
885.8360, 90.98990
886.3080, 71.66610
886.7810, 46.46730
887.2530, 84.51840
887.7260, 82.44460
888.1980, 58.12070
888.6710, 56.42200
889.1430, 76.09810
889.6160, 63.52430
890.0880, 53.57540
890.5610, 43.50170
891.0330, 59.30290
891.5060, 92.82450
891.9780, 104.9130
892.4510, 78.62710
892.9230, 152.3410
893.3960, 45.67980
893.8680, 98.89370
894.3410, 114.7330
894.8130, 27.57140
895.2860, 18.66030
895.7580, 100.8740
896.2310, 29.58800
896.7030, 46.17690
897.1760, 72.51570
897.6480, 63.85450
898.1210, 85.06850
898.5930, 50.53220
899.0660, 77.37110
899.5380, 99.71010
900.0110, 106.2990
900.4830, 66.38770
900.9560, 79.47670
901.4280, 72.44040
901.9010, 67.90430
902.3730, 57.61820
902.8460, 29.95690
903.3180, 46.67090
903.7910, 80.32200
904.2630, 49.72610
904.7360, 49.13010
905.2080, 46.90910
905.6810, 98.56310
906.1530, 107.2170
906.6260, 86.99620
907.0980, 20.52530
907.5700, 88.42920
908.0430, 96.33330
908.5160, 77.98730
908.9880, 73.26640
909.4610, 92.79530
909.9330, 85.57430
910.4060, 86.72840
910.8780, 98.25740
911.3500, 71.53640
911.8230, 90.94040
912.2950, 101.0940
912.7680, 93.74850
913.2400, 102.2770
913.7130, 108.1820
914.1850, 139.4610
914.6580, 136.9900
915.1300, 122.0190
915.6030, 128.1730
916.0750, 148.4520
916.5480, 126.7310
917.0200, 137.0100
917.4930, 143.9140
917.9650, 119.1930
918.4380, 160.4720
918.9100, 193.7510
919.3830, 262.1550
919.8550, 255.5590
920.3280, 232.2130
920.8000, 238.6170
921.2730, 247.8960
921.7450, 272.3000
922.2180, 296.7040
922.6900, 347.6080
923.1630, 352.0120
923.6350, 383.9160
924.1080, 399.4450
924.5800, 465.5990
925.0530, 509.8780
925.5250, 616.0320
925.9980, 673.5610
926.4700, 742.3400
926.9430, 831.7440
927.4150, 929.3980
927.8880, 991.8020
928.3600, 1098.580
928.8330, 1211.240
929.3050, 1373.010
929.7780, 1455.790
930.2500, 1493.070
930.7230, 1541.480
931.1950, 1494.880
931.6680, 1460.910
932.1400, 1333.190
932.6130, 1195.220
933.0850, 1120.620
933.5580, 998.5250
934.0300, 886.0540
934.5030, 789.0830
934.9750, 670.3620
935.4480, 620.1410
935.9200, 547.6710
936.3930, 484.8240
936.8650, 452.8540
937.3380, 414.2580
937.8100, 418.4120
938.2830, 391.3160
938.7550, 330.2200
939.2280, 321.8740
939.7000, 272.9030
940.1730, 250.4320
940.6450, 236.9610
941.1180, 219.4900
941.5900, 182.0190
942.0630, 166.2980
942.5350, 203.3270
943.0080, 224.9810
943.4800, 209.6350
943.9530, 199.5390
944.4250, 211.6930
944.8980, 229.5970
945.3700, 215.7510
945.8430, 202.9050
946.3150, 216.9340
946.7880, 226.7130
947.2600, 228.3670
947.7330, 238.1460
948.2050, 241.4250
948.6780, 250.0790
949.1500, 256.9830
949.6230, 284.3870
950.0950, 284.6660
950.5680, 290.3200
951.0400, 314.7240
951.5130, 326.2530
951.9850, 336.7820
952.4580, 382.4360
952.9300, 426.8400
953.4030, 472.6190
953.8750, 496.0230
954.3480, 548.4270
954.8200, 627.2060
955.2930, 715.7350
955.7650, 769.2640
956.2370, 778.7930
956.7100, 888.6980
957.1820, 1022.850
957.6550, 1134.130
958.1280, 1181.660
958.6000, 1199.560
959.0720, 1223.090
959.5450, 1287.370
960.0170, 1295.400
960.4900, 1232.550
960.9620, 1132.210
961.4350, 1123.860
961.9070, 1072.520
962.3800, 1014.050
962.8520, 926.9500
963.3250, 912.6040
963.7970, 843.0080
964.2700, 743.5370
964.7420, 689.4410
965.2150, 577.3450
965.6870, 593.1240
966.1600, 646.5280
966.6320, 536.9320
967.1050, 504.3360
967.5770, 483.9900
968.0500, 515.7690
968.5220, 512.9230
968.9950, 490.9520
969.4670, 511.8560
969.9400, 540.2600
970.4120, 533.4140
970.8850, 555.4430
971.3570, 598.9720
971.8300, 674.6260
972.3020, 723.6550
972.7750, 738.0590
973.2470, 746.7130
973.7200, 848.1170
974.1920, 1007.020
974.6650, 1072.930
975.1370, 1118.450
975.6100, 1223.480
976.0820, 1284.510
976.5550, 1333.670
977.0270, 1423.450
977.5000, 1469.350
977.9720, 1473.500
978.4450, 1469.660
978.9170, 1547.810
979.3900, 1604.720
979.8620, 1567.870
980.3350, 1498.900
980.8070, 1439.300
981.2800, 1445.330
981.7520, 1468.240
982.2250, 1407.260
982.6970, 1295.540
983.1700, 1228.700
983.6420, 1172.480
984.1150, 1165.010
984.5870, 992.5350
985.0600, 943.0640
985.5320, 945.7180
986.0050, 899.3720
986.4770, 896.0260
986.9500, 783.3050
987.4220, 740.8340
987.8950, 691.9880
988.3670, 740.8920
988.8400, 702.7960
989.3120, 658.4500
989.7850, 613.7290
990.2570, 607.7580
990.7300, 601.4120
991.2020, 594.6910
991.6750, 552.5950
992.1470, 546.9990
992.6200, 540.9030
993.0920, 563.8070
993.5650, 524.7110
994.0370, 503.3650
994.5100, 479.5190
994.9820, 511.9230
995.4550, 520.2020
995.9270, 476.1060
996.4000, 457.1350
996.8720, 418.4140
997.3450, 438.3180
997.8170, 458.7220
998.2900, 430.3760
998.7620, 412.6560
999.2350, 327.6850
999.7070, 354.8390
1000.180, 302.1180
1000.650, 313.2720
1001.120, 249.4260
1001.600, 256.3300
1002.070, 245.6090
1002.540, 260.7630
1003.010, 220.4170
1003.490, 211.0710
1003.960, 221.9750
1004.430, 191.6290
1004.900, 184.7830
1005.380, 111.5620
1005.850, 145.9660
1006.320, 160.2450
1006.790, 189.0240
1007.270, 165.5530
1007.740, 159.4570
1008.210, 184.3610
1008.680, 160.2650
1009.160, 151.7940
1009.630, 124.6980
1010.100, 153.6020
1010.570, 167.7560
1011.050, 208.9100
1011.520, 195.6890
1011.990, 157.0930
1012.460, 145.4970
1012.940, 183.1510
1013.410, 203.8050
1013.880, 178.0840
1014.350, 113.8630
1014.830, 133.2670
1015.300, 165.2960
1015.770, 183.4500
1016.240, 166.9790
1016.720, 151.0090
1017.190, 154.5370
1017.660, 162.9420
1018.130, 184.5960
1018.610, 218.6250
1019.080, 187.9040
1019.550, 180.8080
1020.020, 198.0870
1020.500, 187.4910
1020.970, 179.0200
1021.440, 224.7990
1021.910, 192.3280
1022.390, 172.8570
1022.860, 228.0110
1023.330, 190.1650
1023.800, 209.3190
1024.280, 204.2230
1024.750, 232.6270
1025.220, 229.1560
1025.690, 220.1850
1026.170, 226.2140
1026.640, 235.8680
1027.110, 235.3970
1027.580, 252.1760
1028.060, 259.2050
1028.530, 245.4840
1029.000, 261.0130
1029.470, 280.9170
1029.950, 301.0710
1030.420, 309.2250
1030.890, 319.0040
1031.360, 334.0330
1031.840, 372.0620
1032.310, 405.0910
1032.780, 422.2450
1033.250, 446.8990
1033.730, 471.6780
1034.200, 527.4570
1034.670, 540.6110
1035.140, 555.0150
1035.620, 564.9190
1036.090, 599.1980
1036.560, 678.8520
1037.030, 670.1310
1037.510, 685.2850
1037.980, 675.9390
1038.450, 694.4680
1038.920, 708.8720
1039.400, 711.4010
1039.870, 723.0560
1040.340, 711.4590
1040.810, 723.3640
1041.290, 757.1430
1041.760, 784.0470
1042.230, 753.3260
1042.700, 814.4800
1043.180, 875.5090
1043.650, 919.1630
1044.120, 915.4420
1044.590, 952.2210
1045.070, 1012.000
1045.540, 1061.780
1046.010, 1038.310
1046.480, 1090.340
1046.960, 1084.990
1047.430, 1028.770
1047.900, 999.1740
1048.370, 994.3280
1048.850, 926.4820
1049.320, 894.0110
1049.790, 853.2900
1050.260, 808.6940
1050.740, 745.0980
1051.210, 682.6270
1051.680, 645.9060
1052.150, 590.0600
1052.630, 587.4640
1053.100, 559.4930
1053.570, 519.8970
1054.040, 475.3010
1054.520, 421.9550
1054.990, 408.8590
1055.460, 380.8880
1055.930, 364.1670
1056.410, 331.9460
1056.880, 291.2250
1057.350, 276.6290
1057.820, 252.9080
1058.300, 289.3120
1058.770, 227.4660
1059.240, 199.1210
1059.710, 222.6490
1060.190, 256.3030
1060.660, 243.3330
1061.130, 204.9870
1061.600, 173.0160
1062.080, 197.2950
1062.550, 141.1990
1063.020, 180.6030
1063.490, 188.7570
1063.970, 175.1610
1064.440, 170.6900
1064.910, 152.5940
1065.380, 122.6230
1065.860, 219.0270
1066.330, 128.6810
1066.800, 147.0850
1067.270, 113.6140
1067.750, 120.5180
1068.220, 137.4220
1068.690, 119.4510
1069.160, 116.9800
1069.640, 112.0090
1070.110, 120.9130
1070.580, 119.5670
1071.050, 133.0960
1071.530, 104.0000
1072.000, 103.9040
1072.470, 105.9330
1072.940, 103.5870
1073.420, 114.2410
1073.890, 103.1450
1074.360, 119.6740
1074.830, 119.3280
1075.310, 87.85730
1075.780, 71.26140
1076.250, 100.1650
1076.720, 120.4440
1077.200, 110.7230
1077.670, 121.7520
1078.140, 133.5310
1078.610, 106.6860
1079.090, 105.4640
1079.560, 101.7440
1080.030, 101.2730
1080.500, 99.80160
1080.980, 127.2060
1081.450, 133.2350
1081.920, 94.38870
1082.390, 119.6680
1082.870, 128.6970
1083.340, 115.3510
1083.810, 106.6300
1084.280, 170.0340
1084.760, 95.93770
1085.230, 112.0920
1085.700, 113.2460
1086.170, 101.7750
1086.650, 108.8040
1087.120, 108.9580
1087.590, 106.4870
1088.060, 87.26600
1088.540, 123.4200
1089.010, 134.1990
1089.480, 138.1030
1089.950, 129.2570
1090.430, 149.6610
1090.900, 147.8150
1091.370, 152.5940
1091.840, 168.6230
1092.320, 171.4020
1092.790, 163.4310
1093.260, 178.7100
1093.730, 174.4890
1094.210, 170.2680
1094.680, 228.0470
1095.150, 264.3260
1095.620, 228.2300
1096.100, 233.2590
1096.570, 264.4130
1097.040, 327.5670
1097.510, 312.2210
1097.990, 347.0000
1098.460, 351.7790
1098.930, 367.9330
1099.400, 330.9620
1099.880, 383.1160
1100.350, 365.2700
1100.820, 381.7990
1101.290, 368.3280
1101.770, 347.3580
1102.240, 360.5110
1102.710, 306.1660
1103.180, 316.9450
1103.660, 291.2240
1104.130, 303.3780
1104.600, 243.6570
1105.070, 243.8110
1105.550, 217.3400
1106.020, 216.3690
1106.490, 192.0230
1106.960, 173.1770
1107.440, 164.4560
1107.910, 152.8600
1108.380, 144.5140
1108.850, 168.7930
1109.330, 151.9470
1109.800, 121.7260
1110.270, 102.6300
1110.740, 97.15910
1111.220, 100.8130
1111.690, 121.7170
1112.160, 109.2460
1112.630, 91.90010
1113.110, 104.8040
1113.580, 113.2080
1114.050, 129.6120
1114.520, 64.14120
1115.000, 58.17030
1115.470, 82.57420
1115.940, 108.1030
1116.410, 168.2570
1116.890, 106.4110
1117.360, 105.9400
1117.830, 85.96940
1118.300, 87.74840
1118.780, 86.15250
1119.250, 70.18150
1119.720, 76.21040
1120.190, 77.23950
1120.670, 82.89360
1121.140, 75.79750
1121.610, 69.82650
1122.080, 67.85560
1122.560, 67.63460
1123.030, 76.41360
1123.500, 83.56760
1123.970, 49.47170
1124.450, 51.50070
1124.920, 98.40480
1125.390, 93.55870
1125.860, 64.71280
1126.340, 42.99180
1126.810, 33.52090
1127.280, 52.92480
1127.750, 54.07890
1128.230, 60.48290
1128.700, 91.76200
1129.170, 57.41590
1129.640, 73.31990
1130.120, 48.97400
1130.590, 59.20250
1131.060, 89.10050
1131.530, 97.49840
1132.010, 75.89640
1132.480, 49.16930
1132.950, 56.44230
1133.420, 58.09020
1133.900, 55.98820
1134.370, 55.51110
1134.840, 61.03410
1135.310, 36.18200
1135.790, 43.20500
1136.260, 59.85290
1136.730, 83.00090
1137.200, 92.52380
1137.680, 64.29680
1138.150, 54.31960
1138.620, 42.21750
1139.090, 73.74050
1139.570, 37.76340
1140.040, 59.16140
1140.510, 63.05930
1140.980, 88.45730
1141.460, 90.85520
1141.930, 37.50320
1142.400, 61.15110
1142.870, 57.54910
1143.350, 29.19700
1143.820, 53.84480
1144.290, 63.24290
1144.760, 58.51590
1145.240, 56.28870
1145.710, 74.18660
1146.180, 68.95960
1146.650, 71.23250
1147.130, 66.25550
1147.600, 55.52840
1148.070, 55.92640
1148.540, 65.32430
1149.020, 63.09730
1149.490, 63.71920
1149.960, 61.77880
1150.430, 71.83800
1150.910, 86.64730
1151.380, 84.08180
1151.850, 83.14110
1152.320, 64.07530
1152.800, 42.50990
1153.270, 63.81910
1153.740, 56.62840
1154.210, 33.81290
1154.690, 48.74720
1155.160, 71.30650
1155.630, 67.24100
1156.100, 60.55020
1156.580, 97.85950
1157.050, 95.54390
1157.520, 84.97830
1157.990, 79.53760
1158.470, 76.59700
1158.940, 52.15640
1159.410, 33.71560
1159.880, 50.39990
1160.360, 58.83440
1160.830, 58.26870
1161.300, 57.95290
1161.770, 77.51250
1162.250, 73.19670
1162.720, 52.00600
1163.190, 117.0650
1163.660, 73.12480
1164.140, 108.5590
1164.610, 58.61850
1165.080, 34.30290
1165.550, 58.36210
1166.030, 80.79660
1166.500, 30.35580
1166.970, 51.66520
1167.440, 61.09960
1167.920, 64.36170
1168.390, 66.58700
1168.860, 46.81230
1169.330, 61.28760
1169.810, 67.63780
1170.280, 67.36300
1170.750, 71.71340
1171.220, 79.43860
1171.700, 72.66380
1172.170, 49.63920
1172.640, 65.23940
1173.110, 71.83960
1173.590, 95.18990
1174.060, 71.79020
1174.530, 55.51540
1175.000, 58.49070
1175.480, 47.46590
1175.950, 77.19130
1176.420, 73.41650
1176.890, 94.14170
1177.370, 54.99210
1177.840, 48.59230
1178.310, 75.31760
1178.780, 85.54280
1179.260, 65.01810
1179.730, 33.61840
1180.200, 79.84360
1180.670, 67.56900
1181.150, 77.29420
1181.620, 85.64440
1182.090, 88.24480
1182.560, 75.97000
1183.040, 66.44520
1183.510, 89.04550
1183.980, 62.64580
1184.450, 68.24600
1184.930, 79.09630
1185.400, 68.69650
1185.870, 80.67180
1186.340, 66.77210
1186.820, 42.62230
1187.290, 103.3900
1187.760, 106.5960
1188.230, 56.67710
1188.710, 53.38290
1189.180, 112.4640
1189.650, 63.16970
1190.120, 52.87550
1190.600, 35.33120
1191.070, 58.66220
1192.480, 101.2800
1192.960, 75.36060
1193.430, 48.44140
1193.900, 49.64750
1194.380, 22.35310
1194.850, 62.05900
1195.320, 71.64000
1195.790, 68.22070
1196.270, 27.42650
1196.740, 51.38220
1197.210, 70.21330
1197.680, 67.45590
1198.160, 51.33090
1198.630, 64.95590
1199.100, 62.83090
1199.570, 55.83090
1200.040, 76.70610
1200.520, 70.33110
1200.990, 68.33110
1201.460, 69.45610
1201.930, 70.58110
1202.410, 81.33110
1202.880, 62.70620
1203.350, 50.45620
1203.820, 54.83110
1204.300, 58.08120
1204.770, 46.70620
1205.240, 53.45620
1205.710, 14.70630
1206.190, 76.83120
1206.660, 88.95620
1207.130, 76.70630
1207.600, 48.08130
1208.080, 54.20630
1208.550, 55.08130
1209.020, 65.33130
1209.490, 38.08130
1209.970, 42.58130
1210.440, 64.33140
1210.910, 61.08140
1211.380, 181.8310
1211.860, 158.9560
1212.330, 61.95640
1212.800, 72.42190
1213.270, 51.43250
1213.750, 95.44350
1214.220, 73.32930
1214.690, 58.84000
1215.160, 57.47600
1215.640, 77.11180
1216.110, 80.12240
1216.580, 103.7580
1217.050, 59.14430
1217.530, 90.65490
1218.000, 52.54080
1218.470, 58.05180
1218.940, 52.43740
1219.420, 73.94820
1219.890, 79.83410
1220.360, 78.46980
1220.830, 34.35570
1221.310, 56.61660
1221.780, 95.25260
1222.250, 82.76320
1222.720, 76.14900
1223.200, 48.16000
1223.670, 54.79570
1224.140, 62.93150
1224.610, 59.44240
1225.090, 72.66140
1225.560, 85.03860
1226.030, 76.41590
1226.500, 97.91820
1226.980, 57.04550
1227.450, 107.0480
1227.920, 81.17500
1228.390, 68.17740
1228.870, 94.42960
1229.340, 76.05700
1229.810, 68.43420
1230.280, 63.18650
1230.760, 66.56380
1231.230, 86.44120
1231.700, 76.56840
1232.170, 91.57070
1232.650, 87.44800
1233.120, 56.57520
1233.590, 6.202510
1234.060, 106.8300
1234.540, 65.08220
1235.010, 89.45940
1235.480, 69.58680
1235.950, 78.96400
1236.430, 108.0910
1236.900, 89.09360
1237.370, 92.59580
1237.840, 80.84810
1238.320, 62.60050
1238.790, 70.35280
1239.260, 86.85500
1239.730, 70.60740
1240.210, 50.73460
1240.680, 81.23690
1241.150, 52.86430
1241.620, 31.99160
1242.100, 98.11880
1242.570, 56.74610
1243.040, 51.74840
1243.510, 65.25060
1243.990, 47.12810
1244.460, 71.88020
1244.930, 84.00760
1245.400, 65.13480
1245.880, 73.38720
1246.350, 70.63940
1246.820, 85.01670
1247.290, 58.51900
1247.770, 44.02120
1248.240, 95.02360
1248.710, 87.40090
1249.180, 87.52820
1249.660, 66.90540
1250.130, 68.03280
1250.600, 94.41000
1251.070, 100.7870
1251.550, 39.03970
1252.020, 80.16690
1252.490, 79.79420
1252.960, 67.42150
1253.440, 56.54880
1253.910, 44.42600
1254.380, 77.17850
1254.850, 84.68070
1255.330, 62.05800
1255.800, 60.31030
1256.270, 50.68760
1256.740, 76.18980
1257.220, 53.31710
1257.690, 56.94450
1258.160, 80.82170
1258.630, 64.32400
1259.110, 78.82630
1259.580, 76.32860
1260.050, 109.2060
1260.520, 81.70830
1261.000, 84.71040
1261.470, 86.33780
1261.940, 63.84010
1262.410, 58.09230
1262.890, 76.13620
1263.360, 65.64030
1263.830, 54.26920
1264.300, 63.52310
1264.780, 61.90220
1265.250, 57.53110
1265.720, 34.91000
1266.190, 51.91410
1266.670, 76.54300
1267.140, 55.79690
1267.610, 47.30100
1268.080, 79.05490
1268.560, 90.05880
1269.030, 68.56290
1269.500, 69.69180
1269.970, 77.69570
1270.450, 59.19960
1270.920, 58.32870
1271.390, 71.58260
1271.860, 48.96150
1272.340, 72.71560
1272.810, 75.96950
1273.280, 45.84840
1273.750, 52.85250
1274.230, 64.23140
1274.700, 79.86040
1275.170, 86.61440
1275.640, 82.24330
1276.120, 47.87220
1276.590, 86.00130
1277.060, 15.00520
1277.530, 79.63420
1278.010, 93.63820
1278.480, 44.76710
1278.950, 62.39600
1279.420, 57.52510
1279.900, 58.52910
1280.370, 69.65800
1280.840, 50.53700
1281.310, 63.31290
1281.790, 79.00120
1282.260, 71.18950
1282.730, 90.12780
1283.200, 62.44100
1283.680, 55.75440
1284.150, 40.44260
1284.620, 67.38100
1285.090, 58.69420
1285.570, 86.88260
1286.040, 80.69580
1286.510, 57.25920
1286.980, 56.44740
1287.460, 79.51070
1287.930, 175.6990
1288.400, 102.2620
1288.870, 69.70060
1289.350, 73.51390
1289.820, 50.20210
1290.290, 77.64050
1290.760, 108.4540
1291.240, 89.64210
1291.710, 85.83030
1292.180, 69.64370
1292.650, 102.7070
1293.130, 110.0200
1293.600, 79.70850
1294.070, 91.77170
1294.540, 84.83510
1295.020, 72.02340
1295.490, 101.5870
1295.960, 72.65000
1296.430, 118.9630
1296.910, 104.9010
1297.380, 113.4650
1297.850, 47.52820
1298.320, 109.7160
1298.800, 101.7800
1299.270, 67.34300
1299.740, 55.90640
1300.210, 77.09470
1300.690, 94.78280
##END=



