##NAMES=Scholzite
##RRUFFID=R050238
##IDEAL CHEMISTRY=CaZn_2_(PO_4_)_2_&#183;2H_2_O
##LOCALITY=near Blinman, South Australia, Australia
##OWNER=RRUFF
##SOURCE=Marcus Origlieri
##DESCRIPTION=Colorless bladed crystals
##STATUS=The identification of this mineral has been confirmed by X-ray diffraction and chemical analysis
##URL=rruff.info/R050238
##MEASURED CHEMISTRY=Ca_1.00_Zn_2.00_(P_1.00_O_4_)_2_Â·2H_2_O
##PIN_ID=M00218
##ORIENTATION=Laser parallel to c* (0 0 1). Fiducial mark perpendicular to laser is parallel to a [1 0 0]
135.3560, 0.0000000E+00
136.5850, 20.09375
137.8140, 228.6143
139.0430, 425.8623
140.2710, 419.2285
141.5000, 184.9287
142.7280, 278.8496
143.9560, 334.4326
145.1840, 249.6240
146.4120, 324.8945
147.6390, 362.6709
148.8670, 422.1953
150.0940, 599.1992
151.3210, 762.5654
152.5490, 1053.880
153.7750, 1156.949
155.0020, 1443.494
156.2290, 1501.038
157.4550, 1798.081
158.6810, 1977.828
159.9080, 2293.012
161.1340, 2723.129
162.3590, 3083.092
163.5850, 3516.344
164.8110, 3556.791
166.0360, 3368.181
167.2610, 2977.037
168.4860, 2580.979
169.7110, 2056.616
170.9360, 2093.230
172.1610, 1985.454
173.3850, 1743.494
174.6100, 1249.611
175.8340, 1080.770
177.0580, 781.9775
178.2820, 477.9961
179.5050, 355.4922
180.7290, 100.8789
181.9520, 78.75195
183.1760, 60.05762
184.3990, 82.45312
185.6220, 21.92676
186.8450, 40.46680
188.0670, 162.0645
189.2900, 47.71094
190.5120, 104.4121
191.7340, 156.2451
192.9560, 139.3281
194.1780, 102.8984
195.4000, 130.9854
196.6220, 110.6855
197.8430, 94.63184
199.0640, 354.9209
200.2860, 519.1240
201.5070, 755.1670
202.7270, 586.0371
203.9480, 174.7383
205.1690, 123.7236
206.3890, 344.3447
207.6090, 209.1211
208.8290, 23.98730
210.0490, 247.1016
211.2690, 644.2373
212.4890, 1103.406
213.7080, 1636.595
214.9280, 2163.399
216.1470, 2706.928
217.3660, 3329.279
218.5850, 3859.549
219.8030, 4435.824
221.0220, 5052.093
222.2400, 5351.348
223.4590, 5416.594
224.6770, 5423.832
225.8950, 5166.070
227.1120, 4865.354
228.3300, 4570.596
229.5480, 4326.835
230.7650, 4327.048
231.9820, 4343.135
233.1990, 4444.178
234.4160, 4619.143
235.6330, 4731.062
236.8490, 4721.938
238.0660, 4812.766
239.2820, 4588.529
240.4980, 4456.232
241.7140, 4164.889
242.9300, 3708.493
244.1460, 3375.223
245.3610, 2907.513
246.5770, 2621.408
247.7920, 2259.146
249.0070, 2130.946
250.2220, 1911.776
251.4370, 1807.771
252.6510, 1482.992
253.8660, 1481.978
255.0800, 1406.952
256.2940, 1415.891
257.5080, 1971.190
258.7220, 1778.427
259.9360, 2421.770
261.1490, 1863.688
262.3630, 1727.382
263.5760, 1808.956
264.7890, 1978.846
266.0020, 2164.429
267.2150, 2189.729
268.4270, 2437.973
269.6400, 2609.158
270.8520, 2815.285
272.0640, 3038.350
273.2760, 3127.350
274.4880, 3284.609
275.7000, 3337.168
276.9120, 3502.986
278.1230, 3530.742
279.3340, 3651.437
280.5450, 3750.073
281.7560, 3906.102
282.9670, 4007.620
284.1780, 4095.363
285.3880, 4237.295
286.5980, 4276.174
287.8090, 4319.489
289.0190, 4197.410
290.2290, 4075.266
291.4380, 3923.941
292.6480, 3747.707
293.8570, 3676.164
295.0670, 3634.174
296.2760, 3512.166
297.4850, 3328.123
298.6930, 3386.243
299.9020, 3324.811
301.1110, 3167.727
302.3190, 3435.109
303.5270, 3370.324
304.7350, 3341.093
305.9430, 3391.709
307.1510, 3487.638
308.3580, 3474.320
309.5660, 3498.785
310.7730, 3468.332
311.9800, 3442.982
313.1870, 3353.054
314.3940, 3239.680
315.6010, 3117.805
316.8070, 2901.428
318.0130, 2669.936
319.2200, 2482.296
320.4260, 2536.562
321.6310, 2333.827
322.8370, 2177.479
324.0430, 2222.330
325.2480, 1974.332
326.4540, 1899.276
327.6590, 1920.104
328.8640, 1810.736
330.0680, 1658.275
331.2730, 1640.790
332.4780, 1629.021
333.6820, 1450.533
334.8860, 1447.139
336.0900, 1330.236
337.2940, 1272.340
338.4980, 1287.094
339.7010, 1251.409
340.9050, 1103.485
342.1080, 1114.240
343.3110, 1037.025
344.5140, 896.0605
345.7170, 928.6016
346.9200, 772.1934
348.1220, 716.4170
349.3240, 604.1289
350.5270, 436.5664
351.7290, 448.6631
352.9310, 355.4395
354.1320, 307.9053
355.3340, 199.8467
356.5350, 152.7822
357.7370, 100.4941
358.9380, 137.3379
360.1390, 59.93848
361.3400, 4.479492
362.5400, 81.95508
363.7410, 41.37305
364.9410, 49.26855
366.1410, 67.99219
367.3410, 23.19824
368.5410, 50.32715
369.7410, 84.60547
370.9400, 9.373047
372.1400, 63.71484
373.3390, 69.88770
374.5380, 61.14844
375.7370, 78.49316
376.9360, 62.75391
378.1350, 31.83594
379.3330, 81.50684
380.5310, 39.56348
381.7300, 34.67676
382.9280, 75.19336
384.1260, 6.011719
385.3230, 87.78418
386.5210, 76.18848
387.7180, 101.4365
388.9160, 249.6436
390.1130, 242.4414
391.3100, 268.1748
392.5060, 349.8428
393.7030, 416.6289
394.9000, 519.1504
396.0960, 615.5479
397.2920, 755.8760
398.4880, 961.0938
399.6840, 1185.184
400.8800, 1249.151
402.0750, 1684.025
403.2710, 1805.835
404.4660, 2181.533
405.6610, 2464.126
406.8560, 2794.660
408.0510, 2987.147
409.2450, 3101.612
410.4400, 3295.038
411.6340, 3276.427
412.8280, 3181.776
414.0220, 3068.087
415.2160, 2776.359
416.4100, 2388.594
417.6030, 2104.788
418.7970, 1661.943
419.9900, 1440.077
421.1830, 1182.180
422.3760, 1013.242
423.5690, 875.2666
424.7610, 771.2529
425.9540, 753.1846
427.1460, 674.0576
428.3380, 430.8740
429.5300, 497.6289
430.7220, 343.3262
431.9140, 425.9600
433.1050, 425.5352
434.2970, 473.0508
435.4880, 403.5068
436.6790, 469.9033
437.8700, 282.2402
439.0610, 255.5127
440.2510, 234.7207
441.4420, 168.4131
442.6320, 262.9424
443.8220, 143.9600
445.0120, 237.9092
446.2020, 248.7959
447.3910, 258.6191
448.5810, 259.3877
449.7700, 142.1045
450.9600, 172.7666
452.1490, 144.3906
453.3370, 37.95410
454.5260, 113.4453
455.7150, 44.87402
456.9030, 90.23535
458.0910, 11.46973
459.2800, 62.25586
460.4670, 94.85449
461.6550, 121.9062
462.8430, 3.897461
464.0300, 17.14941
465.2180, 8.274414
466.4050, 29.52930
467.5920, 11.28613
468.7790, 30.02539
469.9650, 30.37598
471.1520, 13.19141
472.3380, 52.70215
473.5250, 23.15332
474.7110, 10.55176
475.8970, 2.107422
477.0820, 4.135742
478.2680, 1.612305
479.4540, 11.53223
480.6390, 37.63281
481.8240, 59.67188
483.0090, 128.6523
484.1940, 167.5830
485.3780, 113.5664
486.5630, 28.38867
487.7470, 90.54395
488.9320, 67.04883
490.1160, 139.4883
491.3000, 155.0732
492.4830, 135.6006
493.6670, 241.8857
494.8500, 184.3613
496.0340, 312.5176
497.2170, 339.4346
498.4000, 355.8496
499.5820, 416.0156
500.7650, 348.7012
501.9480, 447.6455
503.1300, 581.8301
504.3120, 447.5762
505.4940, 508.0566
506.6760, 450.8545
507.8580, 497.1074
509.0390, 479.1455
510.2210, 466.4609
511.4020, 537.2100
512.5830, 475.2158
513.7640, 493.9209
514.9450, 454.7998
516.1250, 401.1309
517.3060, 376.9609
518.4860, 291.0547
519.6660, 300.1113
520.8460, 264.2607
522.0260, 344.9893
523.2060, 283.1885
524.3850, 253.8799
525.5650, 298.0977
526.7440, 267.5264
527.9230, 306.8320
529.1020, 217.2812
530.2810, 211.9922
531.4590, 309.4902
532.6380, 432.1885
533.8160, 372.1143
534.9940, 244.6152
536.1720, 386.3828
537.3500, 421.2881
538.5270, 480.1543
539.7050, 510.3662
540.8820, 684.8135
542.0590, 864.6143
543.2360, 874.9473
544.4130, 1157.769
545.5900, 1168.372
546.7660, 1463.672
547.9430, 1673.377
549.1190, 1696.991
550.2950, 1989.902
551.4710, 2030.302
552.6470, 2105.652
553.8220, 2104.612
554.9980, 1888.382
556.1730, 1710.616
557.3480, 1284.075
558.5230, 1159.855
559.6980, 1038.700
560.8730, 877.9766
562.0470, 930.9277
563.2220, 837.5391
564.3960, 741.0488
565.5700, 798.5312
566.7440, 791.9404
567.9170, 706.7178
569.0910, 730.5859
570.2640, 788.0801
571.4380, 740.9326
572.6110, 911.9541
573.7840, 733.0586
574.9570, 853.5332
576.1290, 1032.125
577.3020, 1029.531
578.4740, 985.7324
579.6460, 1094.496
580.8180, 1065.254
581.9900, 1071.502
583.1620, 998.6123
584.3330, 1091.174
585.5040, 1023.032
586.6760, 1134.476
587.8470, 1071.690
589.0180, 984.5947
590.1880, 1158.450
591.3590, 1102.448
592.5290, 1147.104
593.7000, 1121.928
594.8700, 1115.467
596.0400, 1088.034
597.2090, 1037.005
598.3790, 911.8887
599.5490, 1115.213
600.7180, 1091.773
601.8870, 1038.249
603.0560, 975.2598
604.2250, 977.3135
605.3940, 777.6221
606.5620, 836.4541
607.7300, 689.0820
608.8990, 748.0361
610.0670, 680.6221
611.2350, 485.6992
612.4020, 528.4365
613.5700, 487.2334
614.7370, 492.6494
615.9050, 420.2305
617.0720, 386.7207
618.2390, 377.7793
619.4060, 302.1260
620.5720, 272.7812
621.7390, 367.1846
622.9050, 289.7100
624.0710, 468.5508
625.2370, 207.2988
626.4030, 347.4727
627.5690, 397.5225
628.7340, 417.0781
629.9000, 451.3457
631.0650, 455.1855
632.2300, 444.7510
633.3950, 432.1387
634.5600, 452.0742
635.7240, 405.1738
636.8890, 422.8477
638.0530, 357.4248
639.2170, 401.5156
640.3810, 297.7510
641.5450, 431.8945
642.7080, 315.5645
643.8720, 346.1953
645.0350, 188.2109
646.1980, 417.9512
647.3610, 335.3174
648.5240, 411.7920
649.6870, 221.4619
650.8490, 283.2441
652.0120, 188.9883
653.1740, 364.6426
654.3360, 300.1201
655.4980, 288.9121
656.6600, 305.1426
657.8210, 314.5176
658.9830, 311.5469
660.1440, 327.0791
661.3050, 374.1816
662.4660, 237.5791
663.6270, 317.3174
664.7870, 188.9414
665.9480, 221.2881
667.1080, 203.1855
668.2680, 347.4023
669.4280, 192.3936
670.5880, 182.4209
671.7480, 117.9102
672.9070, 78.95703
674.0670, 12.66113
675.2260, 5.127930
676.3850, 10.74805
677.5440, 9.794922
678.7030, 155.8574
679.8610, 89.51855
681.0200, 2.6366999E-02
682.1780, 96.61133
683.3360, 223.1758
684.4940, 12.73535
685.6520, 75.51562
686.8090, 221.8926
687.9670, 2.650391
689.1240, 84.43555
690.2810, 17.10156
691.4380, 18.62012
692.5950, 103.0635
693.7520, 138.7910
694.9080, 17.84082
696.0650, 193.8438
697.2210, 107.2637
698.3770, 82.53516
699.5330, 62.33496
700.6880, 24.47754
701.8440, 110.5557
702.9990, 140.4600
704.1550, 137.1250
705.3100, 144.6494
706.4650, 46.58398
707.6190, 31.79199
708.7740, 90.53711
709.9290, 26.58496
711.0830, 108.0635
712.2370, 6.424805
713.3910, 66.48730
714.5450, 52.01562
715.6980, 42.60645
716.8520, 125.7734
718.0050, 57.03027
719.1580, 22.46973
720.3110, 114.4502
721.4640, 11.60645
722.6170, 49.35449
723.7700, 89.21191
724.9220, 34.03516
726.0740, 90.81738
727.2260, 165.9492
728.3780, 83.96387
729.5300, 9.829102
730.6810, 87.58398
731.8330, 44.98340
732.9840, 180.5566
734.1350, 67.18848
735.2860, 92.88672
736.4370, 196.2490
737.5880, 187.8535
738.7380, 106.6924
739.8880, 63.98535
741.0390, 200.9707
742.1890, 82.42969
743.3380, 124.2764
744.4880, 132.2041
745.6380, 36.36914
746.7870, 233.9092
747.9360, 102.8867
749.0850, 222.9072
750.2340, 61.26660
751.3830, 141.0596
752.5310, 170.5654
753.6800, 92.39062
754.8280, 54.17969
755.9760, 134.9336
757.1240, 78.65430
758.2720, 2.724609
759.4190, 175.3760
760.5670, 183.4277
761.7140, 38.98730
762.8610, 236.5010
764.0080, 71.87207
765.1550, 204.3105
766.3020, 179.7178
767.4480, 174.0869
768.5950, 172.4229
769.7410, 228.7227
770.8870, 43.98730
772.0330, 198.2080
773.1780, 93.39258
774.3240, 75.53711
775.4690, 117.6387
776.6140, 298.7002
777.7590, 239.7246
778.9040, 208.7129
780.0490, 119.6621
781.1940, 121.5703
782.3380, 47.43652
783.4820, 81.11816
784.6260, 162.8975
785.7700, 134.6357
786.9140, 86.33496
788.0580, 53.99121
789.2010, 54.35449
790.3450, 75.05469
791.4880, 110.5820
792.6310, 48.06836
793.7730, 166.5107
794.9160, 129.9131
796.0590, 11.27734
797.2010, 63.58301
798.3430, 124.8486
799.4850, 106.0742
800.6270, 315.2598
801.7690, 259.4092
802.9100, 94.42090
804.0520, 168.4951
805.1930, 9.506836
806.3340, 96.46289
807.4750, 75.30371
808.6160, 46.06445
809.7560, 135.5146
810.8970, 230.7646
812.0370, 272.7041
813.1770, 299.5791
814.3170, 257.4443
815.4570, 294.0938
816.5960, 160.6816
817.7360, 314.7783
818.8750, 143.4453
820.0140, 149.5068
821.1530, 141.2363
822.2920, 76.55859
823.4310, 161.5205
824.5690, 1.915039
825.7070, 178.3203
826.8460, 76.35449
827.9840, 68.82910
829.1220, 75.27734
830.2590, 82.04590
831.3970, 61.61133
832.5340, 147.2803
833.6710, 37.33398
834.8080, 61.99316
835.9450, 84.51855
837.0820, 12.53809
838.2190, 71.81152
839.3550, 104.6455
840.4910, 137.8916
841.6270, 174.3896
842.7630, 51.89355
843.8990, 114.0420
845.0350, 73.82812
846.1700, 66.08301
847.3060, 113.6436
848.4410, 94.68555
849.5760, 3.073242
850.7100, 65.72461
851.8450, 38.43750
852.9800, 128.0830
854.1140, 95.05469
855.2480, 40.71387
856.3820, 156.2031
857.5160, 210.0557
858.6500, 119.7090
859.7830, 191.2471
860.9170, 290.9297
862.0500, 188.3623
863.1830, 36.01270
864.3160, 35.95410
865.4480, 78.88867
866.5810, 145.1328
867.7130, 73.21094
868.8460, 24.91992
869.9780, 44.10742
871.1100, 94.82617
872.2410, 148.4668
873.3730, 11.82520
874.5050, 196.1855
875.6360, 104.9424
876.7670, 57.12500
877.8980, 34.68262
879.0290, 2.289063
880.1590, 28.23730
881.2900, 89.19141
882.4200, 11.74609
883.5500, 91.11816
884.6800, 72.07129
885.8100, 190.8252
886.9400, 151.4102
888.0690, 49.78711
889.1990, 83.91309
890.3280, 94.65234
891.4570, 77.45898
892.5860, 108.9727
893.7140, 29.76270
894.8430, 144.6357
895.9710, 8.508789
897.1000, 67.43555
898.2280, 202.9688
899.3560, 110.7129
900.4830, 122.7588
901.6110, 128.3496
902.7380, 300.8271
903.8660, 478.2715
904.9930, 387.7002
906.1200, 622.3564
907.2460, 704.0146
908.3730, 670.5264
909.5000, 837.5918
910.6260, 1118.575
911.7520, 1265.727
912.8780, 1779.395
914.0040, 2104.045
915.1290, 2543.558
916.2550, 2898.693
917.3800, 3631.830
918.5050, 4110.551
919.6300, 4727.508
920.7550, 5477.802
921.8800, 5966.973
923.0040, 6428.941
924.1290, 6742.764
925.2530, 6569.586
926.3770, 6604.495
927.5010, 6167.548
928.6250, 6066.279
929.7480, 5497.564
930.8720, 5093.695
931.9950, 4977.035
933.1180, 4635.925
934.2410, 4156.070
935.3640, 4075.141
936.4860, 3722.678
937.6090, 3444.209
938.7310, 3083.248
939.8530, 2960.599
940.9750, 2598.793
942.0970, 2405.325
943.2180, 2246.810
944.3400, 1980.635
945.4610, 1805.863
946.5820, 1589.397
947.7030, 1428.936
948.8240, 1240.544
949.9450, 1200.154
951.0650, 1292.768
952.1860, 1022.249
953.3060, 1158.895
954.4260, 984.3535
955.5460, 772.8682
956.6650, 655.3945
957.7850, 679.6953
958.9040, 567.3584
960.0230, 762.9189
961.1420, 689.6826
962.2610, 712.0713
963.3800, 784.4404
964.4990, 730.8496
965.6170, 792.2959
966.7350, 764.6748
967.8530, 886.4297
968.9710, 911.7480
970.0890, 924.1973
971.2070, 1097.773
972.3240, 1316.604
973.4410, 1415.935
974.5580, 1431.964
975.6750, 1778.907
976.7920, 1948.959
977.9090, 2240.576
979.0250, 2619.924
980.1410, 2872.738
981.2580, 3624.217
982.3740, 4420.231
983.4890, 5282.494
984.6050, 6735.695
985.7200, 7482.561
986.8360, 8931.332
987.9510, 10248.50
989.0660, 12262.54
990.1810, 13891.39
991.2950, 16034.68
992.4100, 17941.98
993.5240, 19782.23
994.6390, 22083.56
995.7530, 24230.90
996.8660, 26191.25
997.9800, 28328.23
999.0940, 30147.24
1000.207, 31010.50
1001.320, 31117.93
1002.433, 30268.34
1003.546, 28457.71
1004.659, 25354.00
1005.772, 22190.20
1006.884, 18843.72
1007.996, 15466.97
1009.108, 12687.98
1010.220, 10099.53
1011.332, 8092.363
1012.444, 6738.561
1013.555, 5506.602
1014.666, 4549.410
1015.777, 3844.703
1016.888, 3614.105
1017.999, 3313.793
1019.110, 2915.426
1020.220, 2831.713
1021.331, 2946.551
1022.441, 2937.658
1023.551, 2691.430
1024.661, 2684.221
1025.770, 2676.031
1026.880, 2263.857
1027.989, 2198.318
1029.098, 1608.170
1030.207, 1414.602
1031.316, 1347.506
1032.425, 814.4375
1033.533, 848.3828
1034.642, 863.3438
1035.750, 752.3262
1036.858, 586.3223
1037.966, 450.3359
1039.073, 561.3652
1040.181, 623.4102
1041.288, 586.4746
1042.396, 421.5527
1043.503, 469.6523
1044.610, 499.7656
1045.716, 555.8945
1046.823, 591.0391
1047.929, 434.1973
1049.036, 602.3730
1050.142, 615.5664
1051.248, 596.7793
1052.353, 729.0078
1053.459, 597.2520
1054.564, 647.5156
1055.670, 634.7910
1056.775, 774.0859
1057.880, 759.3945
1058.985, 594.7227
1060.089, 710.0645
1061.194, 623.4238
1062.298, 749.2559
1063.402, 710.6484
1064.506, 535.3984
1065.610, 860.0039
1066.713, 563.7051
1067.817, 767.1699
1068.920, 1053.650
1070.023, 821.1406
1071.126, 746.8906
1072.229, 745.8301
1073.332, 756.3633
1074.435, 825.9688
1075.537, 876.9355
1076.639, 933.4590
1077.741, 1044.945
1078.843, 1092.814
1079.945, 1181.158
1081.046, 1334.832
1082.148, 1404.875
1083.249, 1429.992
1084.350, 1577.141
1085.451, 1622.186
1086.551, 1717.615
1087.652, 1615.191
1088.752, 1677.479
1089.853, 1713.146
1090.953, 1543.998
1092.053, 1550.510
1093.152, 1478.336
1094.252, 1439.416
1095.351, 1386.992
1096.451, 1447.277
1097.550, 1477.676
1098.649, 1571.129
1099.748, 1699.430
1100.846, 1443.734
1101.945, 1805.494
1103.043, 1692.607
1104.141, 1853.736
1105.239, 2047.477
1106.337, 2345.832
1107.434, 2688.680
1108.532, 3193.543
1109.629, 3862.209
1110.726, 4701.859
1111.823, 5724.229
1112.920, 6673.998
1114.017, 7636.879
1115.113, 8520.207
1116.210, 8628.369
1117.306, 8244.666
1118.402, 7363.432
1119.498, 5923.371
1120.593, 4734.891
1121.689, 3590.570
1122.784, 2744.408
1123.879, 2190.426
1124.974, 1737.299
1126.069, 1563.826
1127.164, 1152.352
1128.259, 1114.008
1129.353, 832.6934
1130.447, 736.6738
1131.541, 575.7090
1132.635, 666.8164
1133.729, 432.4082
1134.822, 547.8848
1135.916, 452.0703
1137.009, 465.3047
1138.102, 289.1582
1139.195, 241.3906
1140.288, 363.0801
1141.380, 320.4473
1142.473, 317.0996
1143.565, 447.3906
1144.657, 284.6895
1145.749, 259.2188
1146.841, 349.7129
1147.932, 512.0488
1149.024, 507.4395
1150.115, 488.8789
1151.206, 664.9121
1152.297, 616.1387
1153.388, 820.2949
1154.479, 766.5488
1155.569, 833.6621
1156.659, 1160.488
1157.750, 1326.309
1158.839, 1387.334
1159.929, 1745.922
1161.019, 2007.676
1162.108, 2458.344
1163.198, 2758.279
1164.287, 3286.281
1165.376, 4101.643
1166.465, 4831.656
1167.553, 5405.109
1168.642, 6279.434
1169.730, 7126.309
1170.818, 7701.604
1171.906, 7985.887
1172.994, 7411.365
1174.082, 6373.617
1175.170, 5647.855
1176.257, 4571.080
1177.344, 3662.287
1178.431, 2749.580
1179.518, 2265.246
1180.605, 1812.863
1181.691, 1354.418
1182.778, 1069.541
1183.864, 853.6465
1184.950, 724.7344
1186.036, 660.8027
1187.122, 572.8535
1188.207, 561.9434
1189.292, 355.9570
1190.378, 385.9492
1191.463, 299.9219
1192.548, 7.875000
1193.632, 176.8047
1194.717, 157.2578
1195.801, 82.77344
1196.886, 66.10938
1197.970, 314.1875
1199.054, 138.9238
1200.137, 195.6387
1201.221, 69.66602
1202.305, 39.07812
1203.388, 177.1348
1204.471, 134.0293
1205.554, 120.8535
1206.637, 11.61523
1207.719, 165.8848
1208.802, 95.35938
1209.884, 1.117188
1210.966, 248.1270
1212.048, 71.26172
1213.130, 58.03125
1214.212, 108.7734
1215.293, 85.75781
1216.374, 111.0293
1217.456, 80.36914
1218.536, 138.4707
1219.617, 111.5879
1220.698, 155.1074
1221.778, 27.51367
1222.859, 89.33789
1223.939, 1.740234
1225.019, 71.15039
1226.099, 75.39844
1227.178, 54.06055
1228.258, 4.734375
1229.337, 1.392578
1230.417, 32.43555
1231.496, 38.63672
1232.574, 59.34180
1233.653, 89.63281
1234.732, 48.52930
1235.810, 112.0234
1236.888, 9.5702998E-02
1237.966, 23.01367
1239.044, 5.283203
1240.122, 121.1523
1241.199, 99.47266
1242.277, 55.07031
1243.354, 42.40234
1244.431, 173.5332
1245.508, 213.0098
1246.585, 188.8047
1247.661, 77.95312
1248.738, 46.39844
1249.814, 18.28125
1250.890, 2.228516
1251.966, 4.171875
1253.042, 42.99023
1254.117, 62.69727
1255.193, 145.4746
1256.268, 148.1777
1257.343, 118.0781
1258.418, 112.6758
1259.493, 21.48828
1260.567, 111.3496
1261.642, 265.7988
1262.716, 159.0723
1263.790, 191.8633
1264.864, 337.1973
1265.938, 274.1426
1267.011, 134.3203
1268.085, 336.1504
1269.158, 176.1621
1270.231, 266.0547
1271.304, 198.2168
1272.377, 306.3320
1273.450, 370.7461
1274.522, 235.4863
1275.594, 245.8125
1276.666, 288.5684
1277.738, 275.8750
1278.810, 264.0156
1279.882, 126.2949
1280.953, 98.56250
1282.025, 116.3711
1283.096, 101.7090
1284.167, 127.8633
1285.238, 206.8711
1286.308, 207.7949
1287.379, 157.2676
1288.449, 262.4141
1289.519, 230.4199
1290.589, 249.1660
1291.659, 184.4160
1292.729, 167.3438
1293.798, 326.0742
1294.868, 159.5098
1295.937, 292.8945
1297.006, 441.9258
1298.075, 187.2188
1299.143, 418.5254
1300.212, 333.3594
1301.280, 275.5254
1302.348, 350.6348
1303.416, 379.1836
1304.484, 397.2051
1305.552, 338.1797
1306.620, 306.1113
1307.687, 213.9980
1308.754, 221.8340
1309.821, 233.7031
1310.888, 512.3613
1311.955, 383.0605
1313.021, 448.7109
1314.088, 665.3320
1315.154, 396.9121
1316.220, 324.4434
1317.286, 351.9316
1318.352, 433.3730
1319.417, 510.7754
1320.483, 475.1270
1321.548, 369.9805
1322.613, 335.2383
1323.678, 281.1953
1324.743, 203.0820
1325.807, 259.9453
1326.872, 409.0215
1327.936, 516.0547
1329.000, 456.0469
1330.064, 308.7520
1331.128, 228.2422
1332.191, 262.1035
1333.255, 273.8809
1334.318, 450.5449
1335.381, 439.1836
1336.444, 431.8730
1337.507, 265.2715
1338.569, 258.1621
1339.632, 93.68555
1340.694, 195.8105
1341.756, 351.8184
1342.818, 218.7500
1343.880, 288.7285
1344.941, 152.2812
1346.003, 385.6895
1347.064, 76.30469
1348.125, 397.5000
1349.186, 125.4746
1350.247, 237.7500
1351.308, 213.3418
1352.368, 211.0566
1353.428, 117.4785
1354.489, 61.90234
1355.549, 113.1230
1356.608, 202.2461
1357.668, 254.4531
1358.727, 38.63477
1359.787, 271.7500
1360.846, 12.02148
1361.905, 47.84961
1362.964, 286.7012
1364.022, 10.58008
1365.081, 221.9609
1366.139, 14.66602
1367.197, 90.91992
1368.255, 313.5625
1369.313, 51.29883
1370.371, 3.566406
1371.428, 116.8691
1372.486, 268.5898
1373.543, 22.87109
1374.600, 86.50781
1375.657, 42.61328
1376.713, 195.2363
1377.770, 225.2637
1378.826, 224.3418
1379.882, 260.7500
1380.938, 217.9180
1381.994, 229.7715
1383.050, 98.84961
1384.106, 59.00977
1385.161, 104.8828
1386.216, 46.31055
1387.271, 283.8594
1388.326, 98.54297
1389.381, 73.18555
1390.435, 236.5605
1391.490, 91.59570
1392.544, 6.490234
1393.598, 5.900391
1394.652, 187.6758
1395.705, 134.8906
1396.759, 152.3750
1397.812, 78.20898
1398.866, 78.70117
1399.919, 235.5312
1400.972, 148.3242
1402.024, 236.8477
1403.077, 123.3750
1404.129, 221.0410
1405.181, 41.61133
1406.233, 206.0898
1407.285, 196.9551
1408.337, 132.6387
1409.389, 227.3887
1410.440, 56.01367
1411.491, 70.33203
1412.542, 60.70117
1413.593, 269.5508
1414.644, 142.1445
1415.695, 164.1387
1416.745, 214.9648
1417.795, 82.83203
1418.845, 128.3926
1419.895, 201.8438
1420.945, 267.8945
1421.995, 291.0957
1423.044, 76.17578
1424.093, 280.1191
1425.142, 225.6836
1426.191, 88.57031
1427.240, 237.4277
1428.289, 375.0449
1429.337, 122.8438
1430.385, 263.6133
1431.433, 246.3535
1432.481, 280.0723
1433.529, 332.6680
1434.577, 320.8555
1435.624, 357.0508
1436.672, 363.2734
1437.719, 383.3730
1438.766, 375.2656
1439.812, 609.5859
1440.859, 385.6113
1441.905, 534.1738
1442.952, 631.6680
1443.998, 387.1758
1445.044, 669.4258
1446.090, 607.4121
1447.135, 717.1934
1448.181, 689.8398
1449.226, 774.0977
1450.271, 482.0176
1451.316, 590.3359
1452.361, 377.9102
1453.405, 534.8828
1454.450, 502.7695
1455.494, 474.1973
1456.538, 567.2422
1457.582, 727.0508
1458.626, 698.8574
1459.670, 259.6504
1460.713, 416.3477
1461.757, 284.6816
1462.800, 559.1465
1463.843, 315.8594
1464.886, 559.1035
1465.928, 306.1719
1466.971, 359.6016
1468.013, 278.7168
1469.055, 242.4668
1470.097, 268.9199
1471.139, 198.5020
1472.181, 305.7188
1473.222, 288.1172
1474.263, 329.7227
1475.305, 233.6680
1476.346, 248.2969
1477.386, 260.3027
1478.427, 311.1172
1479.468, 198.2031
1480.508, 200.8984
1481.548, 367.0820
1482.588, 225.1133
1483.628, 169.2441
1484.668, 65.36133
1485.707, 256.7168
1486.747, 238.2402
1487.786, 178.0664
1488.825, 230.7051
1489.864, 215.5059
1490.902, 173.1641
1491.941, 158.8516
1492.979, 122.3984
1494.017, 166.3242
1495.055, 244.2812
1496.093, 78.85938
1497.131, 156.1816
1498.168, 51.24609
1499.206, 167.1309
1500.243, 171.9570
1501.280, 15.90039
1502.317, 12.98242
1503.354, 243.8652
1504.390, 163.7246
1505.426, 269.5664
1506.463, 150.3730
1507.499, 171.0957
1508.535, 140.7832
1509.570, 360.4316
1510.606, 197.0527
1511.641, 223.6758
1512.676, 330.2676
1513.711, 166.7910
1514.746, 226.2578
1515.781, 163.6680
1516.816, 171.0312
1517.850, 77.34180
1518.884, 71.59766
1519.918, 105.8262
1520.952, 221.0586
1521.986, 157.4141
1523.019, 224.7090
1524.053, 274.1309
1525.086, 268.5371
1526.119, 246.8711
1527.152, 233.1250
1528.185, 200.6289
1529.217, 408.9551
1530.250, 267.8711
1531.282, 262.7344
1532.314, 174.5723
1533.346, 430.6934
1534.377, 267.8398
1535.409, 263.0020
1536.440, 115.0918
1537.472, 407.4004
1538.503, 301.4824
1539.534, 386.0566
1540.564, 234.4082
1541.595, 285.5820
1542.625, 274.1719
1543.656, 344.7480
1544.686, 178.3008
1545.716, 133.2441
1546.745, 175.8516
1547.775, 212.1641
1548.804, 100.5469
1549.834, 198.9062
1550.863, 725.2480
1551.892, 641.5938
1552.920, 573.8516
1553.949, 778.0508
1554.977, 551.1973
1556.006, 491.5371
1557.034, 264.0195
1558.062, 378.6191
1559.089, 413.3145
1560.117, 225.6699
1561.144, 63.75391
1562.172, 153.1914
1563.199, 22.02539
1564.226, 80.24414
1565.252, 288.9453
1566.279, 497.1016
1567.305, 260.4609
1568.332, 4.406250
1569.358, 313.0410
1570.384, 198.0547
1571.409, 3.390625
1572.435, 0.0000000E+00
##END=



