##NAMES=Scholzite
##RRUFFID=R050238
##IDEAL CHEMISTRY=CaZn_2_(PO_4_)_2_&#183;2H_2_O
##LOCALITY=near Blinman, South Australia, Australia
##OWNER=RRUFF
##SOURCE=Marcus Origlieri
##DESCRIPTION=Colorless bladed crystals
##STATUS=The identification of this mineral has been confirmed by X-ray diffraction and chemical analysis
##URL=rruff.info/R050238
##MEASURED CHEMISTRY=Ca_1.00_Zn_2.00_(P_1.00_O_4_)_2_Â·2H_2_O
##PIN_ID=M00218
##ORIENTATION=Laser parallel to c* (0 0 1). Fiducial mark perpendicular to laser is parallel to a [1 0 0]
135.3560, 0.0000000E+00
136.5850, 18.12891
137.8140, 239.2109
139.0430, 285.5439
140.2710, 531.7588
141.5000, 458.6172
142.7280, 581.7314
143.9560, 635.2412
145.1840, 569.6123
146.4120, 544.0723
147.6390, 553.5127
148.8670, 720.7949
150.0940, 937.9473
151.3210, 1201.141
152.5490, 1600.698
153.7750, 1905.412
155.0020, 2308.065
156.2290, 2848.245
157.4550, 3435.404
158.6810, 4352.898
159.9080, 5025.912
161.1340, 6050.264
162.3590, 6744.726
163.5850, 7377.984
164.8110, 7392.223
166.0360, 7918.315
167.2610, 6715.547
168.4860, 5703.488
169.7110, 4545.840
170.9360, 3685.545
172.1610, 2639.551
173.3850, 1921.822
174.6100, 1542.337
175.8340, 1020.078
177.0580, 710.0283
178.2820, 580.1758
179.5050, 512.5098
180.7290, 278.0166
181.9520, 274.6895
183.1760, 113.5244
184.3990, 19.51660
185.6220, 26.34082
186.8450, 40.07227
188.0670, 44.69629
189.2900, 6.233398
190.5120, 162.6846
191.7340, 98.27832
192.9560, 22.23242
194.1780, 32.56641
195.4000, 205.6582
196.6220, 92.36523
197.8430, 82.97852
199.0640, 144.3135
200.2860, 279.4717
201.5070, 481.5010
202.7270, 642.4023
203.9480, 363.1768
205.1690, 432.8262
206.3890, 548.3516
207.6090, 923.7539
208.8290, 1625.053
210.0490, 2501.332
211.2690, 3429.622
212.4890, 4695.931
213.7080, 5937.263
214.9280, 7323.615
216.1470, 8940.998
217.3660, 10769.42
218.5850, 12409.87
219.8030, 14281.35
221.0220, 15476.88
222.2400, 16175.44
223.4590, 15558.03
224.6770, 14405.63
225.8950, 12925.24
227.1120, 10696.94
228.3300, 8896.710
229.5480, 7247.549
230.7650, 5958.449
231.9820, 5021.424
233.1990, 4295.508
234.4160, 3748.536
235.6330, 3392.510
236.8490, 3002.291
238.0660, 2748.022
239.2820, 2437.498
240.4980, 2091.831
241.7140, 1844.132
242.9300, 1597.582
244.1460, 1334.613
245.3610, 1197.251
246.5770, 1129.842
247.7920, 984.7637
249.0070, 927.9648
250.2220, 726.8945
251.4370, 843.3799
252.6510, 745.8770
253.8660, 719.8350
255.0800, 917.8213
256.2940, 1004.673
257.5080, 1436.319
258.7220, 1396.023
259.9360, 1752.132
261.1490, 1531.824
262.3630, 1528.580
263.5760, 1732.277
264.7890, 1970.912
266.0020, 2299.480
267.2150, 2589.977
268.4270, 2697.398
269.6400, 3082.746
270.8520, 3186.016
272.0640, 3256.208
273.2760, 3428.322
274.4880, 3639.360
275.7000, 3548.320
276.9120, 3752.204
278.1230, 3881.011
279.3340, 3801.740
280.5450, 4073.394
281.7560, 4086.461
282.9670, 4293.408
284.1780, 4775.803
285.3880, 5148.453
286.5980, 4816.906
287.8090, 4306.111
289.0190, 4173.996
290.2290, 4018.859
291.4380, 3982.673
292.6480, 3701.430
293.8570, 3662.634
295.0670, 3494.575
296.2760, 3296.229
297.4850, 3146.490
298.6930, 3253.924
299.9020, 3164.736
301.1110, 3366.786
302.3190, 3249.802
303.5270, 3234.340
304.7350, 3381.388
305.9430, 3520.362
307.1510, 3509.061
308.3580, 3548.888
309.5660, 3606.641
310.7730, 3375.347
311.9800, 3278.384
313.1870, 3095.242
314.3940, 2987.831
315.6010, 2806.222
316.8070, 2726.354
318.0130, 2416.032
319.2200, 2244.902
320.4260, 2165.689
321.6310, 2133.812
322.8370, 2005.736
324.0430, 1883.183
325.2480, 1853.163
326.4540, 1824.138
327.6590, 1870.679
328.8640, 1910.116
330.0680, 1851.339
331.2730, 1905.814
332.4780, 1902.493
333.6820, 1765.540
334.8860, 1837.732
336.0900, 1786.515
337.2940, 1839.159
338.4980, 1812.184
339.7010, 1789.235
340.9050, 1661.646
342.1080, 1608.150
343.3110, 1569.805
344.5140, 1445.637
345.7170, 1359.203
346.9200, 1192.375
348.1220, 1070.666
349.3240, 1046.159
350.5270, 858.7646
351.7290, 579.3457
352.9310, 521.9482
354.1320, 418.1338
355.3340, 337.0850
356.5350, 218.5371
357.7370, 170.2979
358.9380, 65.76074
360.1390, 7.903320
361.3400, 69.96973
362.5400, 1.966797
363.7410, 50.95898
364.9410, 95.13184
366.1410, 144.4102
367.3410, 112.8047
368.5410, 23.69141
369.7410, 64.88672
370.9400, 1.561523
372.1400, 36.31836
373.3390, 101.1680
374.5380, 25.87598
375.7370, 34.84082
376.9360, 34.16895
378.1350, 96.87500
379.3330, 73.02637
380.5310, 180.2529
381.7300, 177.3789
382.9280, 429.2070
384.1260, 423.9961
385.3230, 475.8809
386.5210, 556.6221
387.7180, 844.3311
388.9160, 947.9512
390.1130, 1089.333
391.3100, 1238.425
392.5060, 1395.483
393.7030, 1728.391
394.9000, 1931.159
396.0960, 2354.742
397.2920, 2874.188
398.4880, 3363.507
399.6840, 4069.676
400.8800, 4569.763
402.0750, 5427.751
403.2710, 6286.662
404.4660, 7153.510
405.6610, 8325.299
406.8560, 8917.034
408.0510, 9897.718
409.2450, 10555.35
410.4400, 10730.92
411.6340, 10640.45
412.8280, 10115.92
414.0220, 9442.341
415.2160, 8293.703
416.4100, 7108.020
417.6030, 6110.281
418.7970, 5113.488
419.9900, 4220.640
421.1830, 3615.738
422.3760, 3141.781
423.5690, 2469.776
424.7610, 2732.719
425.9540, 2297.130
427.1460, 1929.755
428.3380, 2053.163
429.5300, 1199.840
430.7220, 1032.445
431.9140, 810.9785
433.1050, 761.4385
434.2970, 790.8252
435.4880, 586.1387
436.6790, 438.3779
437.8700, 479.5420
439.0610, 277.6289
440.2510, 333.6348
441.4420, 258.5605
442.6320, 152.4043
443.8220, 293.1641
445.0120, 276.8418
446.2020, 147.4385
447.3910, 75.95020
448.5810, 72.37207
449.7700, 73.70410
450.9600, 151.9434
452.1490, 20.10156
453.3370, 16.16406
454.5260, 119.1338
455.7150, 28.02148
456.9030, 44.82031
458.0910, 11.46875
459.2800, 39.86035
460.4670, 17.37305
461.6550, 52.99219
462.8430, 21.26074
464.0300, 58.57422
465.2180, 10.46094
466.4050, 17.59570
467.5920, 74.75879
468.7790, 67.94336
469.9650, 117.4395
471.1520, 68.97754
472.3380, 6.353516
473.5250, 26.40430
474.7110, 5.166992
475.8970, 38.17578
477.0820, 18.19336
478.2680, 14.69531
479.4540, 22.45410
480.6390, 12.67676
481.8240, 5.693359
483.0090, 56.67676
484.1940, 52.26270
485.3780, 96.46484
486.5630, 13.27539
487.7470, 133.6680
488.9320, 207.9814
490.1160, 165.2207
491.3000, 119.3896
492.4830, 98.47754
493.6670, 291.4873
494.8500, 272.4268
496.0340, 357.2939
497.2170, 398.7344
498.4000, 502.7627
499.5820, 413.2227
500.7650, 468.4082
501.9480, 532.5498
503.1300, 602.0752
504.3120, 507.1426
505.4940, 498.0264
506.6760, 638.6846
507.8580, 550.5000
509.0390, 650.3340
510.2210, 708.0898
511.4020, 695.1465
512.5830, 657.8223
513.7640, 578.3906
514.9450, 554.1514
516.1250, 500.5400
517.3060, 463.1807
518.4860, 424.8896
519.6660, 383.9131
520.8460, 339.1523
522.0260, 301.6279
523.2060, 308.2012
524.3850, 361.5078
525.5650, 354.7539
526.7440, 314.6084
527.9230, 333.1299
529.1020, 325.1924
530.2810, 330.8564
531.4590, 371.6230
532.6380, 422.3418
533.8160, 410.2598
534.9940, 424.0674
536.1720, 454.3105
537.3500, 609.4180
538.5270, 501.9531
539.7050, 563.2305
540.8820, 589.7568
542.0590, 797.6914
543.2360, 821.8848
544.4130, 947.8545
545.5900, 889.7812
546.7660, 1106.411
547.9430, 1006.176
549.1190, 1127.189
550.2950, 1356.673
551.4710, 1166.334
552.6470, 1281.279
553.8220, 1228.797
554.9980, 1150.678
556.1730, 1033.203
557.3480, 986.3398
558.5230, 823.6611
559.6980, 943.6260
560.8730, 794.5459
562.0470, 792.4121
563.2220, 679.6572
564.3960, 728.2090
565.5700, 802.6328
566.7440, 829.7031
567.9170, 802.7441
569.0910, 1008.875
570.2640, 829.6553
571.4380, 899.3535
572.6110, 1034.873
573.7840, 1139.385
574.9570, 1057.786
576.1290, 1138.076
577.3020, 1225.382
578.4740, 1231.471
579.6460, 1382.650
580.8180, 1309.590
581.9900, 1386.079
583.1620, 1320.859
584.3330, 1444.732
585.5040, 1451.580
586.6760, 1487.265
587.8470, 1423.766
589.0180, 1303.354
590.1880, 1410.823
591.3590, 1476.219
592.5290, 1350.180
593.7000, 1339.691
594.8700, 1419.092
596.0400, 1352.688
597.2090, 1350.343
598.3790, 1234.339
599.5490, 1272.389
600.7180, 1225.684
601.8870, 1008.228
603.0560, 978.7266
604.2250, 831.1152
605.3940, 801.2100
606.5620, 727.3457
607.7300, 816.0391
608.8990, 645.2295
610.0670, 552.4023
611.2350, 402.0879
612.4020, 513.9365
613.5700, 406.4912
614.7370, 365.0449
615.9050, 384.5254
617.0720, 297.2402
618.2390, 297.2051
619.4060, 308.5020
620.5720, 331.2100
621.7390, 249.4570
622.9050, 296.8828
624.0710, 299.9238
625.2370, 336.1172
626.4030, 356.4766
627.5690, 422.5430
628.7340, 470.5391
629.9000, 437.9531
631.0650, 536.1865
632.2300, 456.8066
633.3950, 484.8809
634.5600, 560.8350
635.7240, 430.2812
636.8890, 435.4785
638.0530, 587.8184
639.2170, 493.2490
640.3810, 368.3955
641.5450, 397.3799
642.7080, 418.9238
643.8720, 236.8281
645.0350, 214.0762
646.1980, 336.2656
647.3610, 368.8018
648.5240, 196.1064
649.6870, 195.4658
650.8490, 171.0225
652.0120, 183.3174
653.1740, 186.5352
654.3360, 248.0000
655.4980, 199.4004
656.6600, 253.1650
657.8210, 303.4502
658.9830, 271.9551
660.1440, 283.0625
661.3050, 195.7188
662.4660, 93.32812
663.6270, 136.7930
664.7870, 153.4355
665.9480, 237.2676
667.1080, 108.5898
668.2680, 29.37695
669.4280, 109.2764
670.5880, 69.67676
671.7480, 66.48633
672.9070, 4.669922
674.0670, 41.90234
675.2260, 46.71289
676.3850, 5.022461
677.5440, 37.28809
678.7030, 84.50684
679.8610, 10.68359
681.0200, 22.53906
682.1780, 68.54102
683.3360, 107.9473
684.4940, 108.4932
685.6520, 171.5820
686.8090, 128.5830
687.9670, 64.37500
689.1240, 15.37402
690.2810, 128.4287
691.4380, 46.49707
692.5950, 136.0410
693.7520, 35.10449
694.9080, 111.3984
696.0650, 10.05078
697.2210, 143.8008
698.3770, 484.9434
699.5330, 274.4678
700.6880, 289.7461
701.8440, 124.8428
702.9990, 39.05859
704.1550, 55.67188
705.3100, 126.1523
706.4650, 119.5518
707.6190, 84.05566
708.7740, 154.9434
709.9290, 161.0811
711.0830, 197.0127
712.2370, 184.9824
713.3910, 197.4170
714.5450, 253.0547
715.6980, 220.3584
716.8520, 135.1709
718.0050, 143.4883
719.1580, 224.3096
720.3110, 135.1006
721.4640, 215.7627
722.6170, 61.64844
723.7700, 209.4482
724.9220, 222.0264
726.0740, 105.2432
727.2260, 166.9473
728.3780, 181.5117
729.5300, 211.1328
730.6810, 258.9365
731.8330, 281.6445
732.9840, 282.4561
734.1350, 299.2500
735.2860, 216.5996
736.4370, 194.2412
737.5880, 211.4736
738.7380, 196.6865
739.8880, 250.8643
741.0390, 189.0459
742.1890, 217.2637
743.3380, 210.7139
744.4880, 228.9248
745.6380, 194.2715
746.7870, 169.4170
747.9360, 166.8145
749.0850, 127.2549
750.2340, 92.70898
751.3830, 73.96289
752.5310, 73.97461
753.6800, 69.96582
754.8280, 88.12500
755.9760, 83.96582
757.1240, 136.7822
758.2720, 71.66992
759.4190, 84.53418
760.5670, 41.30566
761.7140, 57.27344
762.8610, 168.8848
764.0080, 113.6270
765.1550, 128.3359
766.3020, 184.0146
767.4480, 153.6631
768.5950, 20.27637
769.7410, 216.8457
770.8870, 57.38477
772.0330, 66.88867
773.1780, 159.3535
774.3240, 54.78516
775.4690, 52.17676
776.6140, 125.5293
777.7590, 94.84180
778.9040, 180.1152
780.0490, 15.35254
781.1940, 31.54004
782.3380, 18.67285
783.4820, 47.33398
784.6260, 75.67773
785.7700, 130.6504
786.9140, 16.40527
788.0580, 73.11133
789.2010, 127.6787
790.3450, 143.2637
791.4880, 77.82910
792.6310, 89.06543
793.7730, 57.18457
794.9160, 53.75000
796.0590, 33.35645
797.2010, 79.91895
798.3430, 135.4434
799.4850, 12.80176
800.6270, 133.6885
801.7690, 18.27441
802.9100, 73.76465
804.0520, 33.92676
805.1930, 42.81250
806.3340, 26.18750
807.4750, 110.8623
808.6160, 42.34082
809.7560, 24.77246
810.8970, 149.7090
812.0370, 103.3242
813.1770, 414.3184
814.3170, 217.3672
815.4570, 389.5254
816.5960, 613.8535
817.7360, 31.15430
818.8750, 157.3242
820.0140, 66.45801
821.1530, 15.27148
822.2920, 25.05566
823.4310, 8.642578
824.5690, 54.46094
825.7070, 43.36621
826.8460, 41.36328
827.9840, 60.62891
829.1220, 11.25098
830.2590, 37.21289
831.3970, 22.27539
832.5340, 59.50098
833.6710, 0.4453130
834.8080, 71.66113
835.9450, 8.628906
837.0820, 69.35938
838.2190, 26.68262
839.3550, 4.802734
840.4910, 32.89746
841.6270, 52.03613
842.7630, 58.75684
843.8990, 21.80762
845.0350, 3.997070
846.1700, 84.45215
847.3060, 51.08691
848.4410, 112.4551
849.5760, 25.92773
850.7100, 69.56836
851.8450, 142.0527
852.9800, 93.33105
854.1140, 14.65918
855.2480, 65.34766
856.3820, 61.67480
857.5160, 123.6123
858.6500, 12.12988
859.7830, 26.45020
860.9170, 68.63281
862.0500, 22.16504
863.1830, 17.52930
864.3160, 48.53613
865.4480, 179.5947
866.5810, 93.68164
867.7130, 77.22656
868.8460, 40.88281
869.9780, 140.0352
871.1100, 35.72070
872.2410, 108.6201
873.3730, 95.85449
874.5050, 51.38867
875.6360, 137.1514
876.7670, 93.38770
877.8980, 17.30566
879.0290, 195.9053
880.1590, 9.313477
881.2900, 46.40332
882.4200, 24.30371
883.5500, 118.3340
884.6800, 67.53516
885.8100, 193.2295
886.9400, 91.77148
888.0690, 108.2246
889.1990, 100.6689
890.3280, 161.0889
891.4570, 172.9453
892.5860, 172.0361
893.7140, 220.7119
894.8430, 216.6660
895.9710, 268.6084
897.1000, 240.8037
898.2280, 374.1172
899.3560, 407.8926
900.4830, 474.4297
901.6110, 586.0225
902.7380, 640.8428
903.8660, 794.7812
904.9930, 978.1738
906.1200, 1128.117
907.2460, 1260.390
908.3730, 1484.699
909.5000, 1909.392
910.6260, 2334.643
911.7520, 2713.881
912.8780, 3400.424
914.0040, 4112.838
915.1290, 5046.604
916.2550, 6102.029
917.3800, 7037.065
918.5050, 8365.653
919.6300, 9510.253
920.7550, 10652.58
921.8800, 11490.14
923.0040, 12232.66
924.1290, 12400.99
925.2530, 12106.54
926.3770, 11980.17
927.5010, 11174.52
928.6250, 10457.93
929.7480, 9464.204
930.8720, 8559.469
931.9950, 7873.614
933.1180, 6850.998
934.2410, 6390.621
935.3640, 5951.108
936.4860, 5708.736
937.6090, 5075.079
938.7310, 4625.773
939.8530, 4017.477
940.9750, 3737.757
942.0970, 3442.855
943.2180, 3238.443
944.3400, 2872.756
945.4610, 2677.873
946.5820, 2340.659
947.7030, 2055.277
948.8240, 2026.182
949.9450, 2075.092
951.0650, 1763.014
952.1860, 1558.939
953.3060, 1405.227
954.4260, 1164.195
955.5460, 1225.826
956.6650, 1224.281
957.7850, 1263.157
958.9040, 1148.087
960.0230, 990.1934
961.1420, 1001.065
962.2610, 927.4795
963.3800, 928.5723
964.4990, 997.7979
965.6170, 995.4727
966.7350, 1231.883
967.8530, 1307.020
968.9710, 1115.825
970.0890, 1353.312
971.2070, 1496.729
972.3240, 1792.686
973.4410, 1745.134
974.5580, 2030.443
975.6750, 2181.569
976.7920, 2635.350
977.9090, 2676.425
979.0250, 3335.396
980.1410, 3889.955
981.2580, 4746.236
982.3740, 5538.696
983.4890, 6552.117
984.6050, 7723.256
985.7200, 9231.775
986.8360, 11079.83
987.9510, 13083.36
989.0660, 15053.40
990.1810, 17512.93
991.2950, 19802.46
992.4100, 22284.11
993.5240, 24913.52
994.6390, 27766.00
995.7530, 30085.69
996.8660, 32716.75
997.9800, 34826.35
999.0940, 36207.15
1000.207, 37482.91
1001.320, 36823.16
1002.433, 35396.16
1003.546, 33096.71
1004.659, 29574.29
1005.772, 25436.29
1006.884, 21250.00
1007.996, 17676.11
1009.108, 14310.25
1010.220, 11544.45
1011.332, 9329.659
1012.444, 7379.012
1013.555, 6284.836
1014.666, 5263.092
1015.777, 4536.232
1016.888, 3975.581
1017.999, 3732.725
1019.110, 3460.206
1020.220, 3365.717
1021.331, 3275.260
1022.441, 3356.834
1023.551, 3387.461
1024.661, 2997.115
1025.770, 2900.797
1026.880, 2558.507
1027.989, 2195.243
1029.098, 1984.009
1030.207, 1617.804
1031.316, 1424.626
1032.425, 1128.477
1033.533, 923.3535
1034.642, 786.2578
1035.750, 813.1885
1036.858, 685.1475
1037.966, 617.1328
1039.073, 440.1494
1040.181, 549.1924
1041.288, 482.2656
1042.396, 504.3652
1043.503, 418.4922
1044.610, 555.6484
1045.716, 491.8301
1046.823, 486.0391
1047.929, 650.2871
1049.036, 664.5605
1050.142, 609.8691
1051.248, 808.2090
1052.353, 1033.576
1053.459, 932.0137
1054.564, 1169.439
1055.670, 784.9082
1056.775, 794.4102
1057.880, 603.9375
1058.985, 801.4902
1060.089, 595.0703
1061.194, 381.6758
1062.298, 506.3105
1063.402, 432.9688
1064.506, 370.6914
1065.610, 408.3965
1066.713, 303.1074
1067.817, 364.8711
1068.920, 394.6680
1070.023, 326.4883
1071.126, 278.3496
1072.229, 443.2383
1073.332, 381.1738
1074.435, 587.1367
1075.537, 385.1250
1076.639, 392.1406
1077.741, 732.1797
1078.843, 478.2500
1079.945, 605.0098
1081.046, 564.2539
1082.148, 619.3926
1083.249, 837.2676
1084.350, 617.4551
1085.451, 856.6660
1086.551, 903.5957
1087.652, 739.9238
1088.752, 977.3262
1089.853, 838.6562
1090.953, 713.0605
1092.053, 777.7070
1093.152, 774.1484
1094.252, 730.1875
1095.351, 782.0723
1096.451, 707.7402
1097.550, 786.6406
1098.649, 828.2148
1099.748, 942.9531
1100.846, 1011.736
1101.945, 1118.457
1103.043, 1042.477
1104.141, 1292.230
1105.239, 1383.006
1106.337, 1842.879
1107.434, 2169.381
1108.532, 2616.469
1109.629, 3434.500
1110.726, 4316.438
1111.823, 5045.652
1112.920, 5845.604
1114.017, 6458.572
1115.113, 6573.594
1116.210, 6834.221
1117.306, 6792.393
1118.402, 5340.537
1119.498, 4130.068
1120.593, 3051.393
1121.689, 2421.484
1122.784, 1705.162
1123.879, 1314.861
1124.974, 1045.688
1126.069, 839.4785
1127.164, 614.2402
1128.259, 564.9102
1129.353, 532.5508
1130.447, 584.9414
1131.541, 460.4785
1132.635, 522.3496
1133.729, 622.1094
1134.822, 509.0566
1135.916, 548.5059
1137.009, 436.2559
1138.102, 376.7715
1139.195, 393.9727
1140.288, 359.0195
1141.380, 514.7344
1142.473, 691.8496
1143.565, 521.5254
1144.657, 679.3965
1145.749, 679.3008
1146.841, 693.2480
1147.932, 786.1758
1149.024, 870.0723
1150.115, 1054.936
1151.206, 1155.520
1152.297, 1358.959
1153.388, 1595.264
1154.479, 1793.332
1155.569, 2240.459
1156.659, 2338.607
1157.750, 2991.709
1158.839, 3312.816
1159.929, 4047.217
1161.019, 4741.473
1162.108, 5679.350
1163.198, 6775.502
1164.287, 8185.594
1165.376, 10046.49
1166.465, 11850.58
1167.553, 13971.91
1168.642, 15954.99
1169.730, 17701.02
1170.818, 18707.19
1171.906, 18376.34
1172.994, 17493.47
1174.082, 15235.57
1175.170, 12561.48
1176.257, 10143.23
1177.344, 7783.975
1178.431, 6296.566
1179.518, 5055.455
1180.605, 3934.211
1181.691, 3157.936
1182.778, 2555.654
1183.864, 2292.629
1184.950, 1825.330
1186.036, 1542.025
1187.122, 1307.711
1188.207, 1058.537
1189.292, 995.0547
1190.378, 744.8281
1191.463, 724.4746
1192.548, 616.1172
1193.632, 550.7441
1194.717, 644.3594
1195.801, 341.3223
1196.886, 335.9121
1197.970, 460.4922
1199.054, 329.0586
1200.137, 274.9512
1201.221, 276.5508
1202.305, 303.4629
1203.388, 300.9102
1204.471, 163.6035
1205.554, 27.08984
1206.637, 149.6133
1207.719, 149.1641
1208.802, 220.6055
1209.884, 19.96875
1210.966, 52.56641
1212.048, 180.7988
1213.130, 18.85156
1214.212, 106.2559
1215.293, 200.7910
1216.374, 104.4336
1217.456, 93.17969
1218.536, 38.97461
1219.617, 71.27148
1220.698, 62.39062
1221.778, 14.49023
1222.859, 124.5664
1223.939, 35.92188
1225.019, 157.3438
1226.099, 52.33789
1227.178, 6.312500
1228.258, 99.64844
1229.337, 64.42578
1230.417, 66.44141
1231.496, 11.86719
1232.574, 33.94336
1233.653, 108.1465
1234.732, 150.8320
1235.810, 24.10352
1236.888, 48.40820
1237.966, 24.33984
1239.044, 37.50391
1240.122, 81.99023
1241.199, 63.50000
1242.277, 142.0020
1243.354, 157.5488
1244.431, 77.14453
1245.508, 11.58789
1246.585, 28.90234
1247.661, 74.34180
1248.738, 61.71875
1249.814, 137.4434
1250.890, 4.628906
1251.966, 49.42773
1253.042, 50.40625
1254.117, 31.27930
1255.193, 41.11523
1256.268, 9.080078
1257.343, 54.22852
1258.418, 100.2422
1259.493, 206.6270
1260.567, 159.9180
1261.642, 69.57812
1262.716, 107.3086
1263.790, 65.51172
1264.864, 28.96484
1265.938, 133.0898
1267.011, 300.7578
1268.085, 51.81250
1269.158, 80.83008
1270.231, 56.18945
1271.304, 21.70312
1272.377, 35.78711
1273.450, 71.41602
1274.522, 22.53906
1275.594, 38.34180
1276.666, 35.11719
1277.738, 46.72461
1278.810, 127.0703
1279.882, 57.89258
1280.953, 27.48828
1282.025, 91.51953
1283.096, 48.88086
1284.167, 141.7383
1285.238, 139.2852
1286.308, 151.5469
1287.379, 152.0430
1288.449, 90.28711
1289.519, 119.4062
1290.589, 211.2168
1291.659, 147.2578
1292.729, 162.9961
1293.798, 212.1504
1294.868, 165.2285
1295.937, 110.4062
1297.006, 170.8320
1298.075, 184.4766
1299.143, 149.0820
1300.212, 155.8125
1301.280, 162.8398
1302.348, 167.7422
1303.416, 215.9316
1304.484, 259.3262
1305.552, 293.8340
1306.620, 20.32031
1307.687, 220.5742
1308.754, 79.61523
1309.821, 428.6094
1310.888, 314.1152
1311.955, 200.1992
1313.021, 279.2422
1314.088, 283.2461
1315.154, 282.2070
1316.220, 322.1309
1317.286, 286.0137
1318.352, 241.0156
1319.417, 321.8164
1320.483, 269.5801
1321.548, 272.3008
1322.613, 300.9824
1323.678, 187.6211
1324.743, 333.2168
1325.807, 354.7754
1326.872, 496.2969
1327.936, 196.7754
1329.000, 265.2129
1330.064, 187.6133
1331.128, 104.9746
1332.191, 234.2910
1333.255, 300.6562
1334.318, 270.8926
1335.381, 260.0859
1336.444, 303.8320
1337.507, 455.3574
1338.569, 356.7617
1339.632, 318.6680
1340.694, 334.7051
1341.756, 121.9395
1342.818, 230.8438
1343.880, 169.7051
1344.941, 273.8418
1346.003, 412.7051
1347.064, 240.4785
1348.125, 302.3809
1349.186, 396.9648
1350.247, 329.2773
1351.308, 171.7891
1352.368, 220.3027
1353.428, 397.7305
1354.489, 487.9785
1355.549, 188.1816
1356.608, 349.5938
1357.668, 296.7305
1358.727, 109.8301
1359.787, 371.9727
1360.846, 178.0117
1361.905, 104.2871
1362.964, 200.7148
1364.022, 290.6719
1365.081, 170.9707
1366.139, 39.62891
1367.197, 37.33984
1368.255, 156.1211
1369.313, 312.6758
1370.371, 381.4102
1371.428, 75.18945
1372.486, 246.0469
1373.543, 86.04688
1374.600, 57.74023
1375.657, 37.20312
1376.713, 146.2891
1377.770, 37.72852
1378.826, 150.2129
1379.882, 227.1387
1380.938, 248.9609
1381.994, 257.6328
1383.050, 275.3262
1384.106, 218.0254
1385.161, 162.7949
1386.216, 219.5781
1387.271, 145.5918
1388.326, 152.4414
1389.381, 88.00781
1390.435, 224.6699
1391.490, 137.1172
1392.544, 297.0508
1393.598, 73.69727
1394.652, 207.8125
1395.705, 336.8770
1396.759, 399.5586
1397.812, 393.6172
1398.866, 140.8613
1399.919, 213.1660
1400.972, 149.1582
1402.024, 87.60938
1403.077, 201.3105
1404.129, 14.75391
1405.181, 95.35352
1406.233, 78.89258
1407.285, 122.3809
1408.337, 34.07812
1409.389, 12.69336
1410.440, 65.70117
1411.491, 72.68555
1412.542, 131.5801
1413.593, 65.49414
1414.644, 115.3730
1415.695, 248.9336
1416.745, 162.6074
1417.795, 133.6348
1418.845, 15.36523
1419.895, 86.12305
1420.945, 95.12891
1421.995, 60.83203
1423.044, 25.27539
1424.093, 205.9375
1425.142, 197.6270
1426.191, 126.0293
1427.240, 49.42773
1428.289, 63.81836
1429.337, 22.19336
1430.385, 237.7363
1431.433, 127.4043
1432.481, 122.1426
1433.529, 326.9004
1434.577, 13.33203
1435.624, 12.85156
1436.672, 67.96094
1437.719, 160.4453
1438.766, 203.6445
1439.812, 235.7930
1440.859, 242.5020
1441.905, 188.8906
1442.952, 312.2637
1443.998, 115.5605
1445.044, 364.1953
1446.090, 453.4336
1447.135, 542.0059
1448.181, 340.0234
1449.226, 271.4863
1450.271, 309.3691
1451.316, 287.5508
1452.361, 440.2656
1453.405, 248.9570
1454.450, 262.7324
1455.494, 393.4883
1456.538, 334.3340
1457.582, 394.1367
1458.626, 121.0410
1459.670, 336.9453
1460.713, 406.6074
1461.757, 580.0859
1462.800, 312.6816
1463.843, 890.4336
1464.886, 406.9238
1465.928, 125.9082
1466.971, 136.3301
1468.013, 407.1934
1469.055, 187.9648
1470.097, 256.7285
1471.139, 88.50586
1472.181, 85.15430
1473.222, 68.81250
1474.263, 235.6465
1475.305, 394.6230
1476.346, 234.0664
1477.386, 183.5898
1478.427, 392.6699
1479.468, 178.5859
1480.508, 66.22852
1481.548, 88.88672
1482.588, 186.6055
1483.628, 110.5664
1484.668, 198.0840
1485.707, 66.36523
1486.747, 70.35547
1487.786, 23.46289
1488.825, 125.2227
1489.864, 185.2227
1490.902, 11.37305
1491.941, 233.3594
1492.979, 173.4180
1494.017, 85.81836
1495.055, 100.7773
1496.093, 14.20898
1497.131, 46.06445
1498.168, 102.0547
1499.206, 37.02539
1500.243, 185.9102
1501.280, 123.2480
1502.317, 56.27344
1503.354, 101.7832
1504.390, 83.38477
1505.426, 125.2402
1506.463, 200.2461
1507.499, 242.2363
1508.535, 230.2070
1509.570, 137.8438
1510.606, 254.7637
1511.641, 254.6738
1512.676, 88.55469
1513.711, 215.4062
1514.746, 177.2285
1515.781, 217.0059
1516.816, 110.5684
1517.850, 355.2969
1518.884, 284.7734
1519.918, 269.5664
1520.952, 331.2324
1521.986, 237.9043
1523.019, 285.8496
1524.053, 190.0410
1525.086, 173.9277
1526.119, 72.16211
1527.152, 263.1992
1528.185, 743.8066
1529.217, 280.6660
1530.250, 294.5059
1531.282, 537.2617
1532.314, 177.2461
1533.346, 179.1934
1534.377, 255.9277
1535.409, 260.6055
1536.440, 248.1973
1537.472, 277.0508
1538.503, 178.8789
1539.534, 292.6895
1540.564, 220.7109
1541.595, 252.7285
1542.625, 317.7422
1543.656, 176.7031
1544.686, 67.71094
1545.716, 240.7305
1546.745, 218.7637
1547.775, 198.8145
1548.804, 323.5273
1549.834, 239.5547
1550.863, 380.5176
1551.892, 597.4023
1552.920, 490.3320
1553.949, 490.2148
1554.977, 556.2422
1556.006, 41.17969
1557.034, 250.9766
1558.062, 82.57031
1559.089, 110.2676
1560.117, 5.750000
1561.144, 309.8145
1562.172, 89.35742
1563.199, 278.9648
1564.226, 81.64648
1565.252, 165.8477
1566.279, 166.6680
1567.305, 212.1465
1568.332, 0.9960940
1569.358, 173.6660
1570.384, 4.093750
1571.409, 60.01172
1572.435, 0.0000000E+00
##END=



