##NAMES=Tilleyite
##RRUFFID=R050227
##IDEAL CHEMISTRY=Ca_5_Si_2_O_7_(CO_3_)_2_
##LOCALITY=Crestmore Quarry, Riverside County, California, USA
##OWNER=RRUFF
##SOURCE=Marcus Origlieri
##DESCRIPTION=Aggregate of colorless subhedral crystals
##STATUS=The identification of this mineral has been confirmed by X-ray diffraction.
##URL=rruff.info/R050227
##PIN_ID=L00225
##ORIENTATION=Laser parallel to c* (0 0 1). Fiducial mark perpendicular to laser is parallel to a [1 0 0]
79.89500, 0.0000000E+00
81.13100, 123.5571
82.36700, 26.79541
83.60200, 92.43408
84.83700, 222.8955
86.07200, 371.9331
87.30800, 730.4414
88.54200, 1093.483
89.77700, 1639.751
91.01200, 2324.705
92.24600, 2621.276
93.48000, 2669.809
94.71400, 2601.987
95.94800, 2338.781
97.18200, 2189.805
98.41600, 2369.689
99.64900, 2476.593
100.8830, 2443.812
102.1160, 2497.785
103.3490, 2937.056
104.5820, 3809.253
105.8150, 5991.070
107.0470, 5967.250
108.2800, 6640.586
109.5120, 6094.904
110.7440, 5321.057
111.9760, 5519.271
113.2080, 5911.768
114.4400, 6274.779
115.6710, 6779.348
116.9030, 7081.616
118.1340, 7372.532
119.3650, 7383.046
120.5960, 6503.119
121.8270, 5548.731
123.0580, 4749.865
124.2880, 4181.509
125.5190, 3292.654
126.7490, 2711.289
127.9790, 2311.406
129.2090, 1952.997
130.4390, 1835.052
131.6680, 1701.563
132.8980, 1573.526
134.1270, 1784.945
135.3560, 2098.831
136.5850, 2639.194
137.8140, 2890.043
139.0430, 3175.379
140.2710, 3451.208
141.5000, 3546.524
142.7280, 3653.320
143.9560, 3888.805
145.1840, 4038.006
146.4120, 4382.620
147.6390, 4686.061
148.8670, 5158.827
150.0940, 5639.309
151.3210, 6362.917
152.5490, 6713.954
153.7750, 7165.286
155.0020, 7407.516
156.2290, 7257.748
157.4550, 6342.063
158.6810, 5749.510
159.9080, 4657.125
161.1340, 3841.932
162.3590, 2884.951
163.5850, 2292.197
164.8110, 1572.679
166.0360, 1014.405
167.2610, 773.3784
168.4860, 583.6045
169.7110, 503.0830
170.9360, 644.8145
172.1610, 643.7979
173.3850, 856.0298
174.6100, 1050.508
175.8340, 1244.230
177.0580, 1546.193
178.2820, 1621.394
179.5050, 1741.828
180.7290, 1521.494
181.9520, 1535.388
183.1760, 1425.504
184.3990, 1433.848
185.6220, 1279.505
186.8450, 1192.605
188.0670, 1287.148
189.2900, 1456.065
190.5120, 1644.356
191.7340, 1885.130
192.9560, 1955.368
194.1780, 2077.930
195.4000, 2051.886
196.6220, 2097.178
197.8430, 2073.878
199.0640, 1906.022
200.2860, 1709.410
201.5070, 1560.082
202.7270, 1277.951
203.9480, 751.9800
205.1690, 365.1670
206.3890, 110.5444
207.6090, 257.1631
208.8290, 345.6904
210.0490, 343.1294
211.2690, 445.4805
212.4890, 401.7476
213.7080, 396.9316
214.9280, 460.0342
216.1470, 411.0547
217.3660, 224.0400
218.5850, 124.0962
219.8030, 64.72559
221.0220, 170.4243
222.2400, 399.0220
223.4590, 598.6553
224.6770, 821.3662
225.8950, 1038.152
227.1120, 1116.451
228.3300, 1276.405
229.5480, 1321.491
230.7650, 1289.696
231.9820, 1395.208
233.1990, 1250.610
234.4160, 1291.792
235.6330, 1409.662
236.8490, 1290.147
238.0660, 1201.187
239.2820, 1021.730
240.4980, 1080.733
241.7140, 948.1597
242.9300, 1058.978
244.1460, 1120.157
245.3610, 1074.670
246.5770, 1245.493
247.7920, 1414.605
249.0070, 1804.986
250.2220, 2036.625
251.4370, 2561.503
252.6510, 2928.609
253.8660, 3303.934
255.0800, 3744.464
256.2940, 3958.190
257.5080, 4207.106
258.7220, 4309.390
259.9360, 4699.450
261.1490, 4278.840
262.3630, 4101.359
263.5760, 3894.003
264.7890, 3971.771
266.0020, 4073.659
267.2150, 4184.663
268.4270, 4593.780
269.6400, 5090.011
270.8520, 5627.350
272.0640, 6191.795
273.2760, 6957.345
274.4880, 7695.996
275.7000, 8438.746
276.9120, 9030.592
278.1230, 9498.846
279.3340, 9829.487
280.5450, 10131.69
281.7560, 10036.91
282.9670, 10045.21
284.1780, 9713.599
285.3880, 9522.072
286.5980, 9167.625
287.8090, 8918.713
289.0190, 8577.017
290.2290, 8228.300
291.4380, 8073.049
292.6480, 8212.786
293.8570, 8277.570
295.0670, 8534.445
296.2760, 8780.641
297.4850, 9142.071
298.6930, 9672.157
299.9020, 9472.315
301.1110, 8965.562
302.3190, 8563.983
303.5270, 7669.029
304.7350, 7099.686
305.9430, 6508.009
307.1510, 6000.953
308.3580, 5414.250
309.5660, 4927.552
310.7730, 4657.529
311.9800, 4464.818
313.1870, 4277.680
314.3940, 4107.021
315.6010, 3861.841
316.8070, 3716.317
318.0130, 3597.859
319.2200, 3338.834
320.4260, 3245.117
321.6310, 2900.809
322.8370, 2691.214
324.0430, 2470.109
325.2480, 2194.615
326.4540, 2023.059
327.6590, 1828.163
328.8640, 1572.901
330.0680, 1514.788
331.2730, 1362.641
332.4780, 1254.548
333.6820, 1394.448
334.8860, 1366.369
336.0900, 1566.308
337.2940, 1671.264
338.4980, 1780.232
339.7010, 1944.213
340.9050, 2035.204
342.1080, 2536.202
343.3110, 2666.207
344.5140, 3210.215
345.7170, 3619.226
346.9200, 4010.238
348.1220, 4692.250
349.3240, 5140.261
350.5270, 5378.910
351.7290, 5734.226
352.9310, 5810.787
354.1320, 5592.517
355.3340, 5662.301
356.5350, 5154.437
357.7370, 4983.174
358.9380, 4569.049
360.1390, 4274.504
361.3400, 3802.757
362.5400, 3521.093
363.7410, 3258.999
364.9410, 3024.946
366.1410, 2860.889
367.3410, 2628.824
368.5410, 2362.756
369.7410, 2105.680
370.9400, 1890.597
372.1400, 1660.568
373.3390, 1384.598
374.5380, 1141.683
375.7370, 958.8096
376.9360, 631.9731
378.1350, 638.1680
379.3330, 458.3916
380.5310, 479.6401
381.7300, 300.9102
382.9280, 284.1982
384.1260, 150.5029
385.3230, 255.8208
386.5210, 245.1504
387.7180, 320.4883
388.9160, 407.8345
390.1130, 339.1855
391.3100, 576.5400
392.5060, 594.8975
393.7030, 512.2554
394.9000, 562.6123
396.0960, 613.9678
397.2920, 579.3193
398.4880, 572.6670
399.6840, 482.0088
400.8800, 456.2163
402.0750, 428.6694
403.2710, 368.9863
404.4660, 327.2930
405.6610, 311.5884
406.8560, 259.8716
408.0510, 227.1416
409.2450, 226.7798
410.4400, 156.6382
411.6340, 251.8638
412.8280, 169.0728
414.0220, 223.2642
415.2160, 148.4385
416.4100, 234.5923
417.6030, 296.7271
418.7970, 355.8418
419.9900, 291.9351
421.1830, 473.1343
422.3760, 355.1826
423.5690, 392.2075
424.7610, 311.6313
425.9540, 361.9390
427.1460, 204.7393
428.3380, 165.9941
429.5300, 120.8394
430.7220, 69.04297
431.9140, 13.00488
433.1050, 88.49951
434.2970, 94.91211
435.4880, 126.4165
436.6790, 142.9375
437.8700, 30.18359
439.0610, 65.20459
440.2510, 113.1812
441.4420, 24.70898
442.6320, 118.0781
443.8220, 164.1387
445.0120, 163.5479
446.2020, 154.4136
447.3910, 97.45557
448.5810, 6.499512
449.7700, 95.80322
450.9600, 66.81348
452.1490, 159.7183
453.3370, 25.39502
454.5260, 121.6685
455.7150, 112.2295
456.9030, 117.5527
458.0910, 186.6519
459.2800, 99.40674
460.4670, 53.40234
461.6550, 12.21191
462.8430, 30.07959
464.0300, 78.80811
465.2180, 96.32715
466.4050, 85.17432
467.5920, 71.89746
468.7790, 76.33398
469.9650, 56.48730
471.1520, 144.6045
472.3380, 186.7646
473.5250, 198.2065
474.7110, 195.2715
475.8970, 296.1709
477.0820, 346.1426
478.2680, 422.9688
479.4540, 478.4849
480.6390, 507.5059
481.8240, 546.1748
483.0090, 553.8198
484.1940, 518.4258
485.3780, 532.6382
486.5630, 320.5156
487.7470, 422.9966
488.9320, 337.4526
490.1160, 246.8623
491.3000, 268.2251
492.4830, 193.5415
493.6670, 307.8198
494.8500, 286.0596
496.0340, 261.2939
497.2170, 437.5186
498.4000, 457.7358
499.5820, 514.9756
500.7650, 567.2373
501.9480, 700.4976
503.1300, 631.7642
504.3120, 689.0303
505.4940, 651.2827
506.6760, 592.4946
507.8580, 659.6582
509.0390, 623.7739
510.2210, 591.8394
511.4020, 480.8623
512.5830, 422.8521
513.7640, 516.7915
514.9450, 432.6816
516.1250, 581.5195
517.3060, 642.3076
518.4860, 793.0674
519.6660, 924.7734
520.8460, 1060.431
522.0260, 1285.034
523.2060, 1326.594
524.3850, 1582.099
525.5650, 1633.552
526.7440, 1533.964
527.9230, 1626.328
529.1020, 1522.666
530.2810, 1363.955
531.4590, 1287.193
532.6380, 1216.376
533.8160, 1076.517
534.9940, 1032.627
536.1720, 1084.708
537.3500, 1123.755
538.5270, 1179.740
539.7050, 1435.709
540.8820, 1413.599
542.0590, 1523.430
543.2360, 1785.201
544.4130, 1707.914
545.5900, 1782.567
546.7660, 1558.162
547.9430, 1574.697
549.1190, 1472.171
550.2950, 1287.584
551.4710, 1145.936
552.6470, 1126.226
553.8220, 888.4546
554.9980, 794.6211
556.1730, 820.7246
557.3480, 639.7656
558.5230, 667.7451
559.6980, 696.6611
560.8730, 542.5151
562.0470, 420.3062
563.2220, 491.0327
564.3960, 459.6963
565.5700, 365.2969
566.7440, 286.8301
567.9170, 324.2881
569.0910, 385.6758
570.2640, 318.9961
571.4380, 389.2446
572.6110, 319.9673
573.7840, 324.4810
574.9570, 314.9409
576.1290, 305.7700
577.3020, 287.3979
578.4740, 194.7700
579.6460, 294.9023
580.8180, 210.7012
581.9900, 310.2676
583.1620, 208.1836
584.3330, 359.0244
585.5040, 173.7808
586.6760, 177.3647
587.8470, 236.3203
589.0180, 151.6689
590.1880, 111.3472
591.3590, 184.6587
592.5290, 162.8828
593.7000, 55.56934
594.8700, 93.67920
596.0400, 98.88330
597.2090, 202.1470
598.3790, 151.2920
599.5490, 195.7153
600.7180, 108.5107
601.8870, 102.2505
603.0560, 99.20166
604.2250, 116.2100
605.3940, 109.4053
606.5620, 137.0894
607.7300, 146.1445
608.8990, 194.0146
610.0670, 243.8701
611.2350, 231.8755
612.4020, 210.2817
613.5700, 140.6069
614.7370, 219.2808
615.9050, 256.7026
617.0720, 228.7085
618.2390, 276.4639
619.4060, 377.1724
620.5720, 423.1504
621.7390, 446.4678
622.9050, 551.2690
624.0710, 591.6250
625.2370, 597.9341
626.4030, 709.2861
627.5690, 741.1274
628.7340, 971.8652
629.9000, 1078.490
631.0650, 1310.241
632.2300, 1575.173
633.3950, 1891.858
634.5600, 2255.345
635.7240, 2771.702
636.8890, 3564.388
638.0530, 4585.405
639.2170, 5448.667
640.3810, 6693.683
641.5450, 7826.106
642.7080, 8967.391
643.8720, 9619.671
645.0350, 9838.301
646.1980, 9992.712
647.3610, 9350.908
648.5240, 8387.375
649.6870, 7366.177
650.8490, 6343.600
652.0120, 5349.487
653.1740, 4304.420
654.3360, 3706.485
655.4980, 3185.266
656.6600, 2624.231
657.8210, 2599.301
658.9830, 2275.902
660.1440, 2423.201
661.3050, 2939.561
662.4660, 3163.437
663.6270, 2452.644
664.7870, 1657.393
665.9480, 1730.766
667.1080, 1553.489
668.2680, 1456.658
669.4280, 1430.103
670.5880, 1336.001
671.7480, 1336.267
672.9070, 1112.571
674.0670, 1110.381
675.2260, 997.8184
676.3850, 1011.955
677.5440, 944.3247
678.7030, 796.1938
679.8610, 788.8467
681.0200, 755.1484
682.1780, 807.5151
683.3360, 907.1475
684.4940, 747.6392
685.6520, 736.9834
686.8090, 861.2808
687.9670, 1005.421
689.1240, 1056.314
690.2810, 1295.186
691.4380, 1546.934
692.5950, 1731.636
693.7520, 2130.292
694.9080, 2216.902
696.0650, 2409.466
697.2210, 2459.984
698.3770, 2429.457
699.5330, 2499.885
700.6880, 2296.268
701.8440, 2066.478
702.9990, 1822.771
704.1550, 1563.022
705.3100, 1752.805
706.4650, 1631.635
707.6190, 1922.903
708.7740, 2210.648
709.9290, 2770.733
711.0830, 2862.389
712.2370, 3030.452
713.3910, 3436.620
714.5450, 3424.863
715.6980, 3094.314
716.8520, 2967.896
718.0050, 2558.653
719.1580, 2361.808
720.3110, 2122.451
721.4640, 1620.887
722.6170, 1270.065
723.7700, 1190.812
724.9220, 823.4556
726.0740, 693.3047
727.2260, 370.4941
728.3780, 424.6963
729.5300, 184.0615
730.6810, 118.0112
731.8330, 314.7373
732.9840, 212.3057
734.1350, 110.9565
735.2860, 193.9722
736.4370, 105.6172
737.5880, 160.9038
738.7380, 151.6943
739.8880, 145.7900
741.0390, 58.79395
742.1890, 79.79443
743.3380, 15.88184
744.4880, 51.56250
745.6380, 18.06348
746.7870, 97.45752
747.9360, 111.1724
749.0850, 96.07910
750.2340, 22.92578
751.3830, 25.35791
752.5310, 49.98389
753.6800, 76.62109
754.8280, 38.65625
755.9760, 240.8970
757.1240, 388.5181
758.2720, 141.1084
759.4190, 52.66309
760.5670, 159.1816
761.7140, 3.332031
762.8610, 33.83740
764.0080, 21.49316
765.1550, 100.8486
766.3020, 61.84180
767.4480, 128.3896
768.5950, 85.58789
769.7410, 38.75391
770.8870, 44.11621
772.0330, 111.9512
773.1780, 47.01367
774.3240, 40.95508
775.4690, 4.889648
776.6140, 49.21387
777.7590, 78.38379
778.9040, 52.36426
780.0490, 73.08105
781.1940, 60.76562
782.3380, 38.58105
783.4820, 137.0127
784.6260, 42.58008
785.7700, 2.115234
786.9140, 110.6143
788.0580, 16.91406
789.2010, 57.48828
790.3450, 39.87402
791.4880, 8.205078
792.6310, 50.50488
793.7730, 5.775391
794.9160, 82.98438
796.0590, 54.17969
797.2010, 9.683594
798.3430, 86.41602
799.4850, 37.51074
800.6270, 96.51270
801.7690, 3.489258
802.9100, 49.52246
804.0520, 24.61035
805.1930, 112.7393
806.3340, 22.95410
807.4750, 15.20898
808.6160, 0.5009770
809.7560, 56.81543
810.8970, 98.18750
812.0370, 109.6338
813.1770, 90.38867
814.3170, 63.76270
815.4570, 6.581055
816.5960, 44.90039
817.7360, 115.1982
818.8750, 86.47559
820.0140, 9.732422
821.1530, 29.96582
822.2920, 52.17773
823.4310, 50.32227
824.5690, 74.67480
825.7070, 120.6865
826.8460, 112.8184
827.9840, 173.9336
829.1220, 208.2715
830.2590, 408.1152
831.3970, 419.1816
832.5340, 486.2314
833.6710, 713.2666
834.8080, 680.2871
835.9450, 748.2910
837.0820, 903.2812
838.2190, 805.2568
839.3550, 627.2188
840.4910, 718.1670
841.6270, 523.1016
842.7630, 388.0244
843.8990, 275.9404
845.0350, 182.8467
846.1700, 162.7422
847.3060, 117.6299
848.4410, 80.04297
849.5760, 64.37402
850.7100, 36.23242
851.8450, 3.918945
852.9800, 15.08203
854.1140, 21.74121
855.2480, 109.5596
856.3820, 13.62988
857.5160, 117.1709
858.6500, 112.9629
859.7830, 93.75195
860.9170, 49.52832
862.0500, 395.3037
863.1830, 399.0752
864.3160, 677.8428
865.4480, 713.6064
866.5810, 616.1191
867.7130, 617.3574
868.8460, 385.1221
869.9780, 392.7891
871.1100, 359.0430
872.2410, 246.6582
873.3730, 212.8994
874.5050, 247.3691
875.6360, 321.7949
876.7670, 322.1973
877.8980, 265.1660
879.0290, 300.2900
880.1590, 301.0303
881.2900, 268.5469
882.4200, 401.1914
883.5500, 428.3857
884.6800, 536.8223
885.8100, 818.8320
886.9400, 765.4385
888.0690, 976.7158
889.1990, 1078.651
890.3280, 1473.779
891.4570, 1733.301
892.5860, 2059.019
893.7140, 2540.729
894.8430, 3467.123
895.9710, 4283.133
897.1000, 5832.607
898.2280, 7879.479
899.3560, 11094.35
900.4830, 15248.12
901.6110, 20031.35
902.7380, 24976.63
903.8660, 29863.97
904.9930, 33456.12
906.1200, 34235.09
907.2460, 31036.62
908.3730, 26631.97
909.5000, 21515.39
910.6260, 16111.44
911.7520, 12061.10
912.8780, 8462.475
914.0040, 5808.035
915.1290, 4193.143
916.2550, 3229.339
917.3800, 2733.489
918.5050, 2115.674
919.6300, 1830.147
920.7550, 1761.233
921.8800, 1733.017
923.0040, 1704.434
924.1290, 1813.182
925.2530, 1965.424
926.3770, 2001.571
927.5010, 1898.539
928.6250, 2124.746
929.7480, 1895.720
930.8720, 1683.544
931.9950, 1653.787
933.1180, 1258.288
934.2410, 1224.683
935.3640, 1049.513
936.4860, 913.9648
937.6090, 849.8320
938.7310, 794.0293
939.8530, 753.4023
940.9750, 780.1465
942.0970, 733.1406
943.2180, 829.6367
944.3400, 840.7266
945.4610, 1147.733
946.5820, 1331.203
947.7030, 1566.001
948.8240, 1792.078
949.9450, 2198.877
951.0650, 2136.135
952.1860, 2061.456
953.3060, 1872.984
954.4260, 1551.937
955.5460, 1155.261
956.6650, 872.6846
957.7850, 555.2148
958.9040, 406.7520
960.0230, 381.4043
961.1420, 357.2637
962.2610, 245.1025
963.3800, 314.0391
964.4990, 290.9814
965.6170, 363.9307
966.7350, 423.8887
967.8530, 240.8496
968.9710, 310.8242
970.0890, 348.8320
971.2070, 415.8467
972.3240, 531.8643
973.4410, 523.8906
974.5580, 806.9219
975.6750, 965.9619
976.7920, 1205.009
977.9090, 1300.067
979.0250, 1459.131
980.1410, 1559.202
981.2580, 1597.279
982.3740, 1597.363
983.4890, 1494.383
984.6050, 1416.365
985.7200, 1064.244
986.8360, 1083.898
987.9510, 1096.323
989.0660, 682.1787
990.1810, 827.3213
991.2950, 724.8281
992.4100, 751.9824
993.5240, 729.1436
994.6390, 704.3115
995.7530, 760.7148
996.8660, 789.1611
997.9800, 867.2686
999.0940, 1069.470
1000.207, 1225.717
1001.320, 1515.352
1002.433, 1538.056
1003.546, 1813.497
1004.659, 2040.995
1005.772, 2451.029
1006.884, 2685.493
1007.996, 3172.104
1009.108, 3480.646
1010.220, 3875.459
1011.332, 3895.844
1012.444, 3571.572
1013.555, 3317.223
1014.666, 2875.961
1015.777, 2384.984
1016.888, 1956.355
1017.999, 1572.780
1019.110, 1338.457
1020.220, 1119.232
1021.331, 935.9023
1022.441, 799.9727
1023.551, 796.1221
1024.661, 747.5732
1025.770, 532.5283
1026.880, 668.3232
1027.989, 771.8779
1029.098, 721.2725
1030.207, 566.2246
1031.316, 814.5840
1032.425, 688.3096
1033.533, 858.3008
1034.642, 673.3281
1035.750, 710.7920
1036.858, 529.2812
1037.966, 467.7715
1039.073, 296.2637
1040.181, 371.2480
1041.288, 347.3457
1042.396, 314.3916
1043.503, 352.5156
1044.610, 426.2725
1045.716, 380.0762
1046.823, 262.6270
1047.929, 401.7617
1049.036, 440.8096
1050.142, 311.0273
1051.248, 352.6855
1052.353, 263.6875
1053.459, 519.0977
1054.564, 434.9561
1055.670, 377.9824
1056.775, 573.3008
1057.880, 586.7490
1058.985, 593.1338
1060.089, 744.4795
1061.194, 861.8408
1062.298, 741.1816
1063.402, 873.5020
1064.506, 967.8291
1065.610, 1143.159
1066.713, 1192.328
1067.817, 1260.488
1068.920, 1564.771
1070.023, 1851.201
1071.126, 2557.625
1072.229, 3545.100
1073.332, 5436.621
1074.435, 9894.126
1075.537, 17034.64
1076.639, 24175.69
1077.741, 33806.83
1078.843, 34668.09
1079.945, 41144.15
1081.046, 35779.21
1082.148, 32745.52
1083.249, 31109.83
1084.350, 31097.25
1085.451, 29958.43
1086.551, 27326.81
1087.652, 26902.99
1088.752, 30939.37
1089.853, 34855.85
1090.953, 42812.33
1092.053, 40330.36
1093.152, 45980.77
1094.252, 34729.05
1095.351, 25885.27
1096.451, 18366.51
1097.550, 11339.79
1098.649, 6260.219
1099.748, 3545.113
1100.846, 2254.798
1101.945, 1365.917
1103.043, 1313.172
1104.141, 873.7910
1105.239, 738.9209
1106.337, 720.1699
1107.434, 501.3477
1108.532, 530.6855
1109.629, 343.0400
1110.726, 315.6562
1111.823, 348.7725
1112.920, 107.8535
1114.017, 191.0830
1115.113, 147.4424
1116.210, 186.6670
1117.306, 140.8486
1118.402, 247.4814
1119.498, 165.0146
1120.593, 256.0459
1121.689, 123.7031
1122.784, 162.6826
1123.879, 211.3076
1124.974, 160.3896
1126.069, 133.2041
1127.164, 4.242188
1128.259, 27.31055
1129.353, 19.17285
1130.447, 143.6465
1131.541, 44.32031
1132.635, 0.8056640
1133.729, 2.354492
1134.822, 64.86230
1135.916, 39.36426
1137.009, 36.33008
1138.102, 53.90723
1139.195, 22.17773
1140.288, 41.35156
1141.380, 2.347656
1142.473, 85.87500
1143.565, 6.931641
1144.657, 28.91992
1145.749, 14.35742
1146.841, 48.28711
1147.932, 117.2305
1149.024, 107.4238
1150.115, 88.57324
1151.206, 31.23047
1152.297, 60.36230
1153.388, 2.083984
1154.479, 92.43555
1155.569, 10.88574
1156.659, 11.79102
1157.750, 52.04297
1158.839, 31.04492
1159.929, 27.45312
1161.019, 21.88965
1162.108, 25.43750
1163.198, 84.11035
1164.287, 23.33496
1165.376, 20.54590
1166.465, 893.6953
1167.553, 1310.186
1168.642, 1544.530
1169.730, 150.1445
1170.818, 47.78711
1171.906, 126.3174
1172.994, 40.46680
1174.082, 27.45117
1175.170, 117.2900
1176.257, 108.6094
1177.344, 192.4404
1178.431, 43.52930
1179.518, 66.69238
1180.605, 27.80371
1181.691, 164.0303
1182.778, 87.23145
1183.864, 6.970703
1184.950, 65.91113
1186.036, 52.02246
1187.122, 18.59375
1188.207, 9.688477
1189.292, 12.67383
1190.378, 23.94629
1191.463, 22.08984
1192.548, 28.34863
1193.632, 34.95703
1194.717, 40.78418
1195.801, 41.21387
1196.886, 81.60840
1197.970, 85.11426
1199.054, 60.23730
1200.137, 27.03320
1201.221, 29.86328
1202.305, 23.18457
1203.388, 19.65234
1204.471, 26.83984
1205.554, 27.59180
1206.637, 8.330078
1207.719, 118.4980
1208.802, 23.84180
1209.884, 112.9648
1210.966, 53.07520
1212.048, 104.5889
1213.130, 104.6523
1214.212, 78.81055
1215.293, 138.1299
1216.374, 91.08008
1217.456, 137.5391
1218.536, 89.98047
1219.617, 64.30371
1220.698, 69.74707
1221.778, 75.06250
1222.859, 177.1094
1223.939, 113.5371
1225.019, 17.80371
1226.099, 119.7500
1227.178, 111.1074
1228.258, 73.48730
1229.337, 200.6904
1230.417, 8.830078
1231.496, 62.13965
1232.574, 110.7529
1233.653, 285.5000
1234.732, 137.0879
1235.810, 106.5234
1236.888, 122.0518
1237.966, 81.54102
1239.044, 18.24609
1240.122, 257.9551
1241.199, 136.6230
1242.277, 143.5049
1243.354, 105.6816
1244.431, 73.97070
1245.508, 11.72852
1246.585, 110.9043
1247.661, 240.7080
1248.738, 262.7109
1249.814, 142.1377
1250.890, 249.9785
1251.966, 169.8652
1253.042, 261.3291
1254.117, 148.8213
1255.193, 209.4414
1256.268, 18.20801
1257.343, 145.6875
1258.418, 182.8730
1259.493, 286.8096
1260.567, 141.3311
1261.642, 109.7988
1262.716, 174.0625
1263.790, 253.2812
1264.864, 302.7207
1265.938, 279.9531
1267.011, 286.4707
1268.085, 274.6016
1269.158, 270.8164
1270.231, 279.1143
1271.304, 269.8223
1272.377, 305.4326
1273.450, 316.6318
1274.522, 203.4209
1275.594, 216.9736
1276.666, 164.9980
1277.738, 236.8945
1278.810, 276.5127
1279.882, 86.72656
1280.953, 217.7852
1282.025, 193.8955
1283.096, 235.5771
1284.167, 330.1221
1285.238, 280.3115
1286.308, 309.9619
1287.379, 273.7139
1288.449, 273.6455
1289.519, 326.6807
1290.589, 61.10254
1291.659, 252.0518
1292.729, 327.5820
1293.798, 94.79199
1294.868, 372.9131
1295.937, 235.5371
1297.006, 263.1006
1298.075, 260.6006
1299.143, 365.0391
1300.212, 319.1680
1301.280, 334.9590
1302.348, 256.3828
1303.416, 281.9824
1304.484, 218.8887
1305.552, 207.9180
1306.620, 197.8838
1307.687, 171.0762
1308.754, 174.4824
1309.821, 137.6533
1310.888, 135.3184
1311.955, 236.5879
1313.021, 135.3818
1314.088, 166.8184
1315.154, 211.5117
1316.220, 177.2021
1317.286, 59.30566
1318.352, 86.20605
1319.417, 123.0879
1320.483, 114.0059
1321.548, 149.5889
1322.613, 96.60449
1323.678, 172.0879
1324.743, 169.5674
1325.807, 133.9170
1326.872, 51.77930
1327.936, 76.73242
1329.000, 93.83691
1330.064, 52.69629
1331.128, 205.5273
1332.191, 153.5898
1333.255, 197.4424
1334.318, 298.5693
1335.381, 120.9854
1336.444, 62.27441
1337.507, 185.2568
1338.569, 137.3516
1339.632, 190.5498
1340.694, 404.1738
1341.756, 93.12402
1342.818, 126.1641
1343.880, 230.5830
1344.941, 61.62891
1346.003, 206.4707
1347.064, 223.1396
1348.125, 184.8242
1349.186, 203.2900
1350.247, 257.9395
1351.308, 158.4629
1352.368, 111.3506
1353.428, 112.7441
1354.489, 133.4980
1355.549, 122.9688
1356.608, 144.2100
1357.668, 147.4141
1358.727, 156.8652
1359.787, 159.2676
1360.846, 181.3242
1361.905, 207.0049
1362.964, 231.1182
1364.022, 195.7285
1365.081, 191.6484
1366.139, 127.3398
1367.197, 27.05273
1368.255, 117.2246
1369.313, 84.93457
1370.371, 195.6113
1371.428, 155.0723
1372.486, 138.3340
1373.543, 81.66602
1374.600, 62.96875
1375.657, 158.7520
1376.713, 86.57227
1377.770, 135.1738
1378.826, 146.3848
1379.882, 35.44531
1380.938, 213.0117
1381.994, 167.9414
1383.050, 5.064453
1384.106, 106.8848
1385.161, 161.5977
1386.216, 89.40430
1387.271, 121.5898
1388.326, 116.0977
1389.381, 87.41992
1390.435, 78.90820
1391.490, 263.6465
1392.544, 88.55273
1393.598, 316.2773
1394.652, 91.94336
1395.705, 208.4004
1396.759, 143.7246
1397.812, 244.9746
1398.866, 74.10547
1399.919, 147.3301
1400.972, 250.4707
1402.024, 275.2891
1403.077, 413.0254
1404.129, 260.4844
1405.181, 300.0254
1406.233, 363.6602
1407.285, 626.1660
1408.337, 747.5508
1409.389, 759.4102
1410.440, 785.6738
1411.491, 986.0195
1412.542, 925.0938
1413.593, 706.5586
1414.644, 463.7754
1415.695, 708.2129
1416.745, 525.5156
1417.795, 418.3887
1418.845, 440.2773
1419.895, 399.3887
1420.945, 714.4121
1421.995, 660.3906
1423.044, 785.9355
1424.093, 991.7480
1425.142, 900.2715
1426.191, 1091.043
1427.240, 1167.756
1428.289, 996.4297
1429.337, 1270.703
1430.385, 1153.998
1431.433, 1111.936
1432.481, 1268.748
1433.529, 1172.445
1434.577, 1079.959
1435.624, 921.4121
1436.672, 667.6270
1437.719, 686.8340
1438.766, 547.3008
1439.812, 261.2734
1440.859, 143.4238
1441.905, 362.6445
1442.952, 151.6562
1443.998, 200.9023
1445.044, 197.3242
1446.090, 168.1406
1447.135, 225.8008
1448.181, 129.0195
1449.226, 237.6934
1450.271, 224.4609
1451.316, 81.91797
1452.361, 144.4023
1453.405, 103.0449
1454.450, 261.1797
1455.494, 73.56641
1456.538, 20.21875
1457.582, 188.7812
1458.626, 14.08398
1459.670, 154.2363
1460.713, 181.2910
1461.757, 177.0430
1462.800, 15.79688
1463.843, 185.3711
1464.886, 24.86523
1465.928, 18.00977
1466.971, 74.00781
1468.013, 114.2930
1469.055, 33.29883
1470.097, 15.51953
1471.139, 149.7637
1472.181, 126.9141
1473.222, 27.27148
1474.263, 123.1367
1475.305, 24.88086
1476.346, 7.4219003E-02
1477.386, 216.1133
1478.427, 98.16406
1479.468, 2.548828
1480.508, 272.3730
1481.548, 262.0000
1482.588, 127.3379
1483.628, 299.0039
1484.668, 175.9824
1485.707, 189.6172
1486.747, 268.7949
1487.786, 107.1055
1488.825, 226.7383
1489.864, 414.5742
1490.902, 395.5117
1491.941, 379.3652
1492.979, 515.1582
1494.017, 520.9043
1495.055, 973.6035
1496.093, 1086.281
1497.131, 1793.924
1498.168, 2436.537
1499.206, 3465.115
1500.243, 3933.662
1501.280, 3581.174
1502.317, 2934.662
1503.354, 2331.137
1504.390, 1650.605
1505.426, 1364.078
1506.463, 966.2559
1507.499, 870.5000
1508.535, 801.0449
1509.570, 576.6973
1510.606, 637.2656
1511.641, 456.6426
1512.676, 628.5332
1513.711, 616.6309
1514.746, 719.4590
1515.781, 1016.441
1516.816, 1028.797
1517.850, 917.2500
1518.884, 726.3105
1519.918, 547.5254
1520.952, 335.1250
1521.986, 302.3887
1523.019, 211.3438
1524.053, 158.0938
1525.086, 174.9043
1526.119, 99.78320
1527.152, 116.1797
1528.185, 117.9922
1529.217, 167.4805
1530.250, 290.7012
1531.282, 17.19727
1532.314, 127.7637
1533.346, 42.90625
1534.377, 248.1797
1535.409, 14.00000
1536.440, 16.53711
1537.472, 125.7695
1538.503, 303.6719
1539.534, 61.21484
1540.564, 139.4395
1541.595, 319.3574
1542.625, 148.9375
1543.656, 361.3770
1544.686, 199.8027
1545.716, 218.2500
1546.745, 182.7012
1547.775, 49.73047
1548.804, 222.8828
1549.834, 186.2793
1550.863, 162.9043
1551.892, 111.5742
1552.920, 118.1680
1553.949, 117.0742
1554.977, 100.5781
1556.006, 168.3574
1557.034, 126.2637
1558.062, 142.8984
1559.089, 219.2148
1560.117, 73.71875
1561.144, 18.47852
1562.172, 79.43750
1563.199, 166.4766
1564.226, 9.140625
1565.252, 81.79492
1566.279, 149.6738
1567.305, 163.4023
1568.332, 223.0449
1569.358, 1.046875
1570.384, 91.26367
1571.409, 0.0000000E+00
##END=



