##NAMES=Trilithionite
##RRUFFID=R040105
##IDEAL CHEMISTRY=KLi_1.5_Al_1.5_(Si_3_Al)O_10_F_2_
##LOCALITY=Brown Derby mine, Ohio City, Gunnison County, Colorado, USA
##OWNER=RRUFF
##SOURCE=University of Arizona Mineral Museum
##DESCRIPTION=Purple hexagonal tablet
##STATUS=The identification of this mineral has been confirmed by X-ray diffraction and chemical analysis
##URL=rruff.info/R040105
##MEASURED CHEMISTRY=(K_0.82_Li_0.14_Na_0.04_)(Li_0.53_Al_0.42_Mn_0.05_)_3_(Si_0.84_Al_0.17_)_4_O_10_((OH)_0.59_F_0.41_)_2_
##PIN_ID=L01598
##ORIENTATION=Laser parallel to c* (0 0 1). Fiducial mark perpendicular to laser is parallel to -a [-1 0 0]
151.3210, 0.0000000E+00
152.5490, 213.7656
153.7750, 181.2734
155.0020, 22.48633
156.2290, 121.6465
157.4550, 44.31055
158.6810, 32.17773
159.9080, 43.50977
161.1340, 217.6172
162.3590, 367.0254
163.5850, 373.3340
164.8110, 423.3887
166.0360, 678.0684
167.2610, 801.1641
168.4860, 880.4453
169.7110, 1155.691
170.9360, 1501.711
172.1610, 1733.352
173.3850, 1878.523
174.6100, 2175.293
175.8340, 2230.914
177.0580, 2540.541
178.2820, 2662.125
179.5050, 2759.445
180.7290, 2614.287
181.9520, 2611.486
183.1760, 2504.910
184.3990, 2267.449
185.6220, 2173.020
186.8450, 1992.557
188.0670, 1883.008
189.2900, 1625.344
190.5120, 1330.551
191.7340, 1214.635
192.9560, 1190.684
194.1780, 1217.828
195.4000, 1259.105
196.6220, 1071.449
197.8430, 808.5527
199.0640, 1032.447
200.2860, 967.1445
201.5070, 979.8613
202.7270, 1035.242
203.9480, 1011.977
205.1690, 785.1113
206.3890, 426.5137
207.6090, 271.1602
208.8290, 108.0742
210.0490, 206.3008
211.2690, 232.8770
212.4890, 195.8359
213.7080, 392.2051
214.9280, 480.0156
216.1470, 349.2910
217.3660, 366.0527
218.5850, 319.3281
219.8030, 361.1309
221.0220, 265.4844
222.2400, 341.4062
223.4590, 414.9121
224.6770, 438.0664
225.8950, 647.0195
227.1120, 524.7891
228.3300, 654.3750
229.5480, 708.7656
230.7650, 1039.002
231.9820, 1202.041
233.1990, 1241.750
234.4160, 1551.377
235.6330, 1726.004
236.8490, 1832.803
238.0660, 2196.227
239.2820, 2171.748
240.4980, 2561.262
241.7140, 2573.430
242.9300, 2869.738
244.1460, 3190.826
245.3610, 3359.924
246.5770, 3672.561
247.7920, 4049.240
249.0070, 4018.613
250.2220, 4326.682
251.4370, 4691.381
252.6510, 4932.045
253.8660, 5341.598
255.0800, 5705.467
256.2940, 6207.699
257.5080, 6555.723
258.7220, 6829.219
259.9360, 7199.900
261.1490, 7192.949
262.3630, 7467.061
263.5760, 6960.875
264.7890, 6523.650
266.0020, 6004.387
267.2150, 5665.078
268.4270, 4989.725
269.6400, 4624.320
270.8520, 4003.861
272.0640, 3828.338
273.2760, 3276.742
274.4880, 2963.068
275.7000, 2644.309
276.9120, 2522.465
278.1230, 2336.533
279.3340, 2166.518
280.5450, 2013.564
281.7560, 1607.230
282.9670, 1759.967
284.1780, 1572.621
285.3880, 1604.199
286.5980, 1204.697
287.8090, 1207.121
289.0190, 1282.471
290.2290, 1152.748
291.4380, 1230.951
292.6480, 1012.088
293.8570, 1119.152
295.0670, 1059.152
296.2760, 999.0840
297.4850, 948.5957
298.6930, 1005.229
299.9020, 1013.883
301.1110, 984.1504
302.3190, 1067.066
303.5270, 930.6484
304.7350, 941.2812
305.9430, 899.1973
307.1510, 709.8867
308.3580, 858.5898
309.5660, 569.2891
310.7730, 473.9844
311.9800, 536.6621
313.1870, 465.3184
314.3940, 438.9434
315.6010, 426.5352
316.8070, 332.9141
318.0130, 420.5898
319.2200, 189.0527
320.4260, 300.4570
321.6310, 287.8066
322.8370, 253.0957
324.0430, 277.3184
325.2480, 197.4727
326.4540, 188.5508
327.6590, 130.5527
328.8640, 73.52930
330.0680, 48.26367
331.2730, 110.0352
332.4780, 21.47070
333.6820, 70.01758
334.8860, 40.68750
336.0900, 231.4727
337.2940, 21.57617
338.4980, 151.4766
339.7010, 144.6738
340.9050, 66.01367
342.1080, 126.4805
343.3110, 129.1016
344.5140, 240.8848
345.7170, 3.863281
346.9200, 28.01758
348.1220, 30.23828
349.3240, 161.6465
350.5270, 78.23633
351.7290, 5.013672
352.9310, 36.73242
354.1320, 143.0957
355.3340, 6.373047
356.5350, 119.9238
357.7370, 45.62305
358.9380, 160.5430
360.1390, 181.8926
361.3400, 209.7051
362.5400, 193.8730
363.7410, 270.5215
364.9410, 359.3008
366.1410, 426.4570
367.3410, 475.5527
368.5410, 496.7070
369.7410, 573.9277
370.9400, 513.5625
372.1400, 585.1250
373.3390, 625.6250
374.5380, 697.0586
375.7370, 854.4238
376.9360, 863.7246
378.1350, 966.3535
379.3330, 1056.105
380.5310, 1083.174
381.7300, 1096.162
382.9280, 1102.066
384.1260, 1361.881
385.3230, 1381.523
386.5210, 1405.965
387.7180, 1699.205
388.9160, 1656.166
390.1130, 1800.918
391.3100, 1975.432
392.5060, 2214.691
393.7030, 2337.715
394.9000, 2439.590
396.0960, 2667.242
397.2920, 2769.771
398.4880, 2870.650
399.6840, 3008.314
400.8800, 3050.449
402.0750, 3163.531
403.2710, 3296.572
404.4660, 3353.580
405.6610, 3439.561
406.8560, 3332.516
408.0510, 3346.443
409.2450, 3209.348
410.4400, 2856.230
411.6340, 2870.088
412.8280, 2722.926
414.0220, 2806.740
415.2160, 2419.533
416.4100, 1992.307
417.6030, 2224.055
418.7970, 1971.789
419.9900, 2025.498
421.1830, 1909.188
422.3760, 1698.859
423.5690, 1841.512
424.7610, 1765.145
425.9540, 1719.762
427.1460, 1695.359
428.3380, 1750.779
429.5300, 1900.506
430.7220, 1937.053
431.9140, 2036.484
433.1050, 2160.102
434.2970, 2150.604
435.4880, 2202.090
436.6790, 2255.562
437.8700, 2305.020
439.0610, 2283.463
440.2510, 2430.895
441.4420, 2393.289
442.6320, 2541.648
443.8220, 2536.967
445.0120, 2402.252
446.2020, 2551.500
447.3910, 2482.715
448.5810, 2624.889
449.7700, 2637.033
450.9600, 2507.141
452.1490, 2417.215
453.3370, 2439.248
454.5260, 2408.855
455.7150, 2227.678
456.9030, 2192.158
458.0910, 2094.486
459.2800, 2139.717
460.4670, 1856.516
461.6550, 2008.635
462.8430, 1984.113
464.0300, 1870.582
465.2180, 1943.898
466.4050, 1808.883
467.5920, 1733.027
468.7790, 1943.383
469.9650, 1923.584
471.1520, 1797.873
472.3380, 1921.750
473.5250, 1869.646
474.7110, 1823.141
475.8970, 1789.529
477.0820, 1642.068
478.2680, 1537.791
479.4540, 1451.504
480.6390, 1170.957
481.8240, 981.6270
483.0090, 965.6953
484.1940, 871.6758
485.3780, 697.8398
486.5630, 710.8184
487.7470, 480.7656
488.9320, 546.5781
490.1160, 233.1992
491.3000, 295.3438
492.4830, 276.2363
493.6670, 104.3672
494.8500, 19.27344
496.0340, 7.740234
497.2170, 64.45508
498.4000, 121.1660
499.5820, 19.62695
500.7650, 121.3320
501.9480, 51.85156
503.1300, 98.43359
504.3120, 168.3281
505.4940, 34.10547
506.6760, 156.8438
507.8580, 61.08984
509.0390, 109.9238
510.2210, 64.85352
511.4020, 49.56445
512.5830, 86.03711
513.7640, 12.38477
514.9450, 204.0332
516.1250, 221.6387
517.3060, 124.4805
518.4860, 295.1992
519.6660, 336.9160
520.8460, 283.6309
522.0260, 418.3438
523.2060, 349.0547
524.3850, 477.7656
525.5650, 515.4805
526.7440, 579.1934
527.9230, 482.9219
529.1020, 641.6621
530.2810, 780.4727
531.4590, 994.3164
532.6380, 783.2090
533.8160, 971.9277
534.9940, 1034.234
536.1720, 1032.359
537.3500, 1263.527
538.5270, 1209.736
539.7050, 1397.004
540.8820, 1360.312
542.0590, 1560.729
543.2360, 1885.191
544.4130, 1925.732
545.5900, 1863.367
546.7660, 1889.072
547.9430, 2114.824
549.1190, 2163.645
550.2950, 2306.482
551.4710, 2612.377
552.6470, 2779.326
553.8220, 2863.330
554.9980, 2959.352
556.1730, 3491.395
557.3480, 3363.461
558.5230, 3615.541
559.6980, 3489.635
560.8730, 3767.742
562.0470, 3658.867
563.2220, 3594.004
564.3960, 3650.160
565.5700, 3457.328
566.7440, 3311.584
567.9170, 3089.713
569.0910, 2819.928
570.2640, 2567.156
571.4380, 2375.023
572.6110, 2413.664
573.7840, 2020.941
574.9570, 1822.232
576.1290, 1708.543
577.3020, 1314.867
578.4740, 1331.207
579.6460, 1173.564
580.8180, 1147.936
581.9900, 851.3242
583.1620, 765.7305
584.3330, 729.1504
585.5040, 721.5898
586.6760, 888.0449
587.8470, 597.5137
589.0180, 534.0020
590.1880, 595.5078
591.3590, 780.0293
592.5290, 561.5703
593.7000, 605.1250
594.8700, 473.7012
596.0400, 426.2969
597.2090, 546.9121
598.3790, 540.5449
599.5490, 516.2012
600.7180, 591.8750
601.8870, 716.5723
603.0560, 721.2910
604.2250, 724.0371
605.3940, 890.8105
606.5620, 702.6074
607.7300, 619.4297
608.8990, 748.2773
610.0670, 832.1562
611.2350, 985.0645
612.4020, 780.0059
613.5700, 941.0215
614.7370, 897.0820
615.9050, 974.2285
617.0720, 939.4336
618.2390, 821.7148
619.4060, 913.0625
620.5720, 734.5273
621.7390, 889.0410
622.9050, 929.6523
624.0710, 972.3574
625.2370, 912.1348
626.4030, 897.0059
627.5690, 835.9629
628.7340, 707.0430
629.9000, 580.1777
631.0650, 605.3633
632.2300, 262.6133
633.3950, 365.9629
634.5600, 92.39062
635.7240, 105.2695
636.8890, 76.62109
638.0530, 32.60156
639.2170, 132.2812
640.3810, 94.95312
641.5450, 89.36328
642.7080, 24.80859
643.8720, 144.4941
645.0350, 129.3809
646.1980, 302.7344
647.3610, 202.9004
648.5240, 265.6387
649.6870, 300.6348
650.8490, 220.3555
652.0120, 204.5508
653.1740, 320.6191
654.3360, 208.7090
655.4980, 313.8223
656.6600, 292.9570
657.8210, 256.1133
658.9830, 212.2930
660.1440, 313.4902
661.3050, 315.7109
662.4660, 268.9512
663.6270, 433.6035
664.7870, 381.0410
665.9480, 555.6680
667.1080, 659.6758
668.2680, 613.6230
669.4280, 754.3027
670.5880, 840.4590
671.7480, 994.5176
672.9070, 1064.633
674.0670, 1253.037
675.2260, 1409.777
676.3850, 1574.865
677.5440, 1740.174
678.7030, 1979.947
679.8610, 2224.500
681.0200, 2493.119
682.1780, 2823.666
683.3360, 3080.484
684.4940, 3515.809
685.6520, 3875.680
686.8090, 4438.279
687.9670, 4958.469
689.1240, 5533.221
690.2810, 6209.674
691.4380, 7026.074
692.5950, 8228.184
693.7520, 9236.107
694.9080, 9925.215
696.0650, 11539.22
697.2210, 12937.83
698.3770, 14929.44
699.5330, 17062.05
700.6880, 19120.68
701.8440, 21169.30
702.9990, 24135.92
704.1550, 26345.55
705.3100, 28576.17
706.4650, 30384.81
707.6190, 31563.43
708.7740, 31462.07
709.9290, 30313.71
711.0830, 28137.34
712.2370, 25504.98
713.3910, 22164.62
714.5450, 19168.26
715.6980, 16577.90
716.8520, 14150.54
718.0050, 12035.23
719.1580, 10117.83
720.3110, 8552.469
721.4640, 7393.113
722.6170, 6216.752
723.7700, 5580.395
724.9220, 4898.035
726.0740, 4165.676
727.2260, 3782.314
728.3780, 3367.953
729.5300, 2930.590
730.6810, 2657.225
731.8330, 2350.859
732.9840, 2143.492
734.1350, 1858.123
735.2860, 1809.750
736.4370, 1886.377
737.5880, 1720.002
738.7380, 1748.252
739.8880, 1668.240
741.0390, 1704.855
742.1890, 1659.469
743.3380, 1655.080
744.4880, 1551.684
745.6380, 1690.287
746.7870, 1696.887
747.9360, 1466.480
749.0850, 1642.070
750.2340, 1815.656
751.3830, 1670.238
752.5310, 1714.816
753.6800, 1583.387
754.8280, 1717.953
755.9760, 1842.512
757.1240, 1662.064
758.2720, 1339.609
759.4190, 1292.150
760.5670, 1176.680
761.7140, 1055.203
762.8610, 919.7188
764.0080, 950.2246
765.1550, 962.7207
766.3020, 888.2070
767.4480, 790.6816
768.5950, 716.7656
769.7410, 686.7617
770.8870, 520.0449
772.0330, 624.4766
773.1780, 599.8945
774.3240, 522.3047
775.4690, 823.7012
776.6140, 846.0898
777.7590, 721.4688
778.9040, 653.1719
780.0490, 580.5371
781.1940, 871.6289
782.3380, 725.9785
783.4820, 830.3145
784.6260, 977.6387
785.7700, 798.9688
786.9140, 721.2910
788.0580, 714.5977
789.2010, 866.8965
790.3450, 872.1836
791.4880, 802.4570
792.6310, 694.7129
793.7730, 504.9551
794.9160, 486.1797
796.0590, 286.3906
797.2010, 246.5840
798.3430, 342.7598
799.4850, 171.9219
800.6270, 78.06641
801.7690, 136.1895
802.9100, 98.29492
804.0520, 12.37891
805.1930, 34.77930
806.3340, 187.5742
807.4750, 50.71875
808.6160, 95.94141
809.7560, 239.2676
810.8970, 157.7734
812.0370, 189.4160
813.1770, 61.21289
814.3170, 48.09570
815.4570, 109.4590
816.5960, 43.90039
817.7360, 290.2871
818.8750, 49.64844
820.0140, 181.0918
821.1530, 234.6855
822.2920, 135.4570
823.4310, 65.35742
824.5690, 138.3457
825.7070, 148.5352
826.8460, 94.60156
827.9840, 77.84570
829.1220, 89.18555
830.2590, 110.3750
831.3970, 46.91211
832.5340, 49.41602
833.6710, 190.8906
834.8080, 190.3457
835.9450, 206.7832
837.0820, 257.2031
838.2190, 300.6074
839.3550, 332.7207
840.4910, 381.5098
841.6270, 391.7109
842.7630, 437.0430
843.8990, 428.7266
845.0350, 387.0254
846.1700, 510.3086
847.3060, 563.5723
848.4410, 519.8203
849.5760, 607.0508
850.7100, 476.2637
851.8450, 660.4609
852.9800, 662.7930
854.1140, 447.9551
855.2480, 657.0996
856.3820, 660.2285
857.5160, 714.3398
858.6500, 822.4355
859.7830, 843.5117
860.9170, 862.5742
862.0500, 872.6172
863.1830, 861.0352
864.3160, 839.6543
865.4480, 788.6465
866.5810, 826.6230
867.7130, 723.5840
868.8460, 830.5273
869.9780, 777.4531
871.1100, 550.3633
872.2410, 649.2578
873.3730, 817.1348
874.5050, 516.9941
875.6360, 546.8398
876.7670, 482.6680
877.8980, 449.4785
879.0290, 499.6426
880.1590, 564.9941
881.2900, 551.8164
882.4200, 711.5645
883.5500, 667.2949
884.6800, 531.0098
885.8100, 722.7090
886.9400, 490.3926
888.0690, 679.0586
889.1990, 749.7246
890.3280, 693.3770
891.4570, 649.0117
892.5860, 895.6328
893.7140, 563.2363
894.8430, 673.8242
895.9710, 776.3984
897.1000, 542.9551
898.2280, 649.4980
899.3560, 599.0254
900.4830, 708.5391
901.6110, 841.0352
902.7380, 776.5195
903.8660, 703.9844
904.9930, 742.4395
906.1200, 906.8789
907.2460, 996.3047
908.3730, 850.7168
909.5000, 984.1152
910.6260, 841.5059
911.7520, 1191.881
912.8780, 783.2402
914.0040, 864.5879
915.1290, 1066.945
916.2550, 975.3359
917.3800, 1070.713
918.5050, 758.0781
919.6300, 989.4297
920.7550, 929.8125
921.8800, 762.1836
923.0040, 879.5430
924.1290, 820.9160
925.2530, 962.2773
926.3770, 795.6230
927.5010, 965.9648
928.6250, 807.2949
929.7480, 834.6250
930.8720, 870.9453
931.9950, 960.2559
933.1180, 927.8945
934.2410, 917.0508
935.3640, 876.1094
936.4860, 810.0137
937.6090, 748.1797
938.7310, 683.1797
939.8530, 756.8066
940.9750, 806.5293
942.0970, 731.5762
943.2180, 768.1562
944.3400, 625.8418
945.4610, 659.4844
946.5820, 713.1973
947.7030, 777.8906
948.8240, 743.5957
949.9450, 600.1367
951.0650, 770.8047
952.1860, 596.5586
953.3060, 800.8262
954.4260, 717.1758
955.5460, 578.2852
956.6650, 637.0332
957.7850, 451.0078
958.9040, 378.3906
960.0230, 476.1934
961.1420, 429.4414
962.2610, 458.0703
963.3800, 445.7578
964.4990, 287.7480
965.6170, 221.9277
966.7350, 53.93555
967.8530, 74.05273
968.9710, 118.5723
970.0890, 249.0957
971.2070, 455.6270
972.3240, 44.16406
973.4410, 323.7051
974.5580, 308.2520
975.6750, 88.80469
976.7920, 245.3652
977.9090, 32.06641
979.0250, 80.50000
980.1410, 202.0742
981.2580, 83.65234
982.3740, 110.2402
983.4890, 269.8359
984.6050, 146.4355
985.7200, 68.04297
986.8360, 16.34375
987.9510, 351.2734
989.0660, 215.8984
990.1810, 300.5312
991.2950, 234.1719
992.4100, 250.8184
993.5240, 130.4707
994.6390, 280.1328
995.7530, 228.8008
996.8660, 277.4785
997.9800, 421.1621
999.0940, 720.8555
1000.207, 869.5547
1001.320, 1110.264
1002.433, 1135.270
1003.546, 1368.705
1004.659, 1087.438
1005.772, 754.1777
1006.884, 629.9277
1007.996, 636.6855
1009.108, 598.4512
1010.220, 514.2266
1011.332, 490.0117
1012.444, 432.8047
1013.555, 724.6074
1014.666, 600.4180
1015.777, 687.2383
1016.888, 636.0664
1017.999, 703.9043
1019.110, 763.7520
1020.220, 955.6074
1021.331, 1002.475
1022.441, 974.4238
1023.551, 922.3086
1024.661, 907.2031
1025.770, 799.1094
1026.880, 772.0215
1027.989, 830.9473
1029.098, 678.8789
1030.207, 682.8242
1031.316, 649.0273
1032.425, 784.7441
1033.533, 487.7168
1034.642, 616.6992
1035.750, 338.6973
1036.858, 435.6992
1037.966, 579.7148
1039.073, 498.7422
1040.181, 596.7773
1041.288, 554.8242
1042.396, 535.9355
1043.503, 451.0039
1044.610, 474.0820
1045.716, 611.1719
1046.823, 590.6133
1047.929, 629.1875
1049.036, 660.7285
1050.142, 947.8613
1051.248, 662.0039
1052.353, 1042.158
1053.459, 913.6836
1054.564, 1014.859
1055.670, 1222.393
1056.775, 1213.836
1057.880, 1310.039
1058.985, 1513.250
1060.089, 1362.053
1061.194, 1671.285
1062.298, 1747.596
1063.402, 1880.459
1064.506, 1988.721
1065.610, 2263.990
1066.713, 2118.271
1067.817, 2104.561
1068.920, 2331.154
1070.023, 2325.752
1071.126, 2462.771
1072.229, 2504.104
1073.332, 2508.977
1074.435, 2810.074
1075.537, 2909.520
1076.639, 2922.002
1077.741, 3120.316
1078.843, 3205.939
1079.945, 3238.770
1081.046, 3243.537
1082.148, 3320.982
1083.249, 3332.859
1084.350, 3411.762
1085.451, 3392.133
1086.551, 3445.178
1087.652, 3200.326
1088.752, 3378.301
1089.853, 3070.547
1090.953, 3201.559
1092.053, 2939.906
1093.152, 2858.314
1094.252, 3129.904
1095.351, 2833.371
1096.451, 2605.883
1097.550, 2815.441
1098.649, 2452.010
1099.748, 2750.590
1100.846, 2568.180
1101.945, 2608.779
1103.043, 2343.383
1104.141, 2509.992
1105.239, 2421.604
1106.337, 2280.223
1107.434, 2424.846
1108.532, 2343.475
1109.629, 2264.105
1110.726, 2213.381
1111.823, 2288.021
1112.920, 2245.670
1114.017, 2255.391
1115.113, 2287.977
1116.210, 2227.637
1117.306, 2186.305
1118.402, 2109.973
1119.498, 2174.496
1120.593, 2212.174
1121.689, 2171.857
1122.784, 2027.545
1123.879, 1979.236
1124.974, 1814.932
1126.069, 1706.633
1127.164, 1761.338
1128.259, 1529.049
1129.353, 1385.764
1130.447, 1357.480
1131.541, 1158.203
1132.635, 1226.930
1133.729, 1171.660
1134.822, 1178.393
1135.916, 1053.271
1137.009, 935.8418
1138.102, 775.6191
1139.195, 655.3711
1140.288, 577.1250
1141.380, 533.8828
1142.473, 355.6465
1143.565, 377.4102
1144.657, 376.1797
1145.749, 523.9512
1146.841, 210.7266
1147.932, 187.5098
1149.024, 29.29297
1150.115, 149.0801
1151.206, 106.8711
1152.297, 98.35547
1153.388, 57.53906
1154.479, 66.23242
1155.569, 154.0078
1156.659, 41.78516
1157.750, 146.5645
1158.839, 102.9492
1159.929, 87.13672
1161.019, 95.92578
1162.108, 71.09961
1163.198, 77.71484
1164.287, 70.31445
1165.376, 80.11328
1166.465, 111.9180
1167.553, 111.7246
1168.642, 92.29492
1169.730, 172.3477
1170.818, 8.162109
1171.906, 69.97461
1172.994, 14.20898
1174.082, 175.5996
1175.170, 32.40820
1176.257, 200.2207
1177.344, 1.035156
1178.431, 35.15430
1179.518, 177.3652
1180.605, 67.32227
1181.691, 63.01758
1182.778, 32.71484
1183.864, 158.5898
1184.950, 112.0195
1186.036, 3.626953
1187.122, 91.76758
1188.207, 46.78320
1189.292, 102.3379
1190.378, 16.10938
1191.463, 179.4297
1192.548, 39.02734
1193.632, 1.484375
1194.717, 39.99219
1195.801, 55.49805
1196.886, 91.00586
1197.970, 241.5156
1199.054, 119.9766
1200.137, 119.5371
1201.221, 30.17188
1202.305, 71.16992
1203.388, 90.48633
1204.471, 157.2012
1205.554, 197.9922
1206.637, 67.18359
1207.719, 2.376953
1208.802, 55.56055
1209.884, 3.257813
1210.966, 25.91211
1212.048, 173.9219
1213.130, 3.144531
1214.212, 118.1973
1215.293, 10.24609
1216.374, 212.2930
1217.456, 64.66602
1218.536, 44.67383
1219.617, 217.2832
1220.698, 26.76367
1221.778, 195.1602
1222.859, 145.0801
1223.939, 241.0020
1225.019, 69.77344
1226.099, 116.5430
1227.178, 52.31055
1228.258, 181.0723
1229.337, 50.83203
1230.417, 252.5859
1231.496, 199.3379
1232.574, 226.0820
1233.653, 126.8242
1234.732, 133.5625
1235.810, 395.2969
1236.888, 480.0254
1237.966, 368.7520
1239.044, 251.4727
1240.122, 382.1914
1241.199, 549.9043
1242.277, 234.6133
1243.354, 568.3340
1244.431, 268.0488
1245.508, 399.7637
1246.585, 679.4688
1247.661, 460.1719
1248.738, 442.8730
1249.814, 492.5684
1250.890, 463.2617
1251.966, 618.9531
1253.042, 387.6406
1254.117, 472.3223
1255.193, 597.0234
1256.268, 477.7188
1257.343, 694.4141
1258.418, 624.1035
1259.493, 625.8203
1260.567, 397.5352
1261.642, 561.2461
1262.716, 637.9531
1263.790, 480.6797
1264.864, 674.4004
1265.938, 844.1191
1267.011, 585.8320
1268.085, 646.5449
1269.158, 879.2539
1270.231, 789.9629
1271.304, 809.6680
1272.377, 803.3867
1273.450, 875.1016
1274.522, 894.8125
1275.594, 934.5234
1276.666, 940.7695
1277.738, 934.9316
1278.810, 945.6348
1279.882, 938.3398
1280.953, 974.0371
1282.025, 829.7402
1283.096, 953.3672
1284.167, 1083.066
1285.238, 966.7637
1286.308, 1096.455
1287.379, 1273.148
1288.449, 1144.838
1289.519, 1191.525
1290.589, 1530.213
1291.659, 1619.896
1292.729, 1722.576
1293.798, 1828.254
1294.868, 1930.848
1295.937, 2163.598
1297.006, 2166.264
1298.075, 2268.926
1299.143, 2427.586
1300.212, 2393.244
1301.280, 2526.896
1302.348, 2452.492
1303.416, 2786.137
1304.484, 2521.781
1305.552, 2523.418
1306.620, 2704.711
1307.687, 2400.875
1308.754, 2507.080
1309.821, 2366.699
1310.888, 2221.316
1311.955, 2066.928
1313.021, 2080.170
1314.088, 1893.777
1315.154, 1844.029
1316.220, 1613.377
1317.286, 1662.973
1318.352, 1500.564
1319.417, 1296.574
1320.483, 1196.168
1321.548, 1207.686
1322.613, 1188.654
1323.678, 1222.232
1324.743, 1038.809
1325.807, 1046.383
1326.872, 710.9551
1327.936, 625.2344
1329.000, 543.5176
1330.064, 780.3906
1331.128, 663.9629
1332.191, 569.0137
1333.255, 486.8633
1334.318, 444.4395
1335.381, 334.0195
1336.444, 610.8242
1337.507, 382.4082
1338.569, 504.8633
1339.632, 312.4570
1340.694, 507.1816
1341.756, 295.9961
1342.818, 352.6035
1343.880, 367.7852
1344.941, 116.4043
1346.003, 326.9590
1347.064, 343.7656
1348.125, 362.3984
1349.186, 307.3262
1350.247, 193.9688
1351.308, 394.6191
1352.368, 435.1016
1353.428, 263.7637
1354.489, 148.4316
1355.549, 214.1074
1356.608, 235.7891
1357.668, 196.4785
1358.727, 237.1738
1359.787, 352.8770
1360.846, 152.5859
1361.905, 283.3027
1362.964, 499.0273
1364.022, 216.7578
1365.081, 340.4961
1366.139, 73.24219
1367.197, 318.9941
1368.255, 249.7539
1369.313, 127.5195
1370.371, 342.2402
1371.428, 371.0215
1372.486, 469.8125
1373.543, 284.6133
1374.600, 344.4180
1375.657, 365.4844
1376.713, 337.3691
1377.770, 294.1992
1378.826, 276.2676
1379.882, 357.1191
1380.938, 75.98047
1381.994, 252.5156
1383.050, 212.5449
1384.106, 45.43164
1385.161, 173.3301
1386.216, 147.8203
1387.271, 48.73828
1388.326, 73.67188
1389.381, 160.6152
1390.435, 339.5664
1391.490, 60.53320
1392.544, 35.51367
1393.598, 224.5742
1394.652, 152.5801
1395.705, 119.1914
1396.759, 375.4414
1397.812, 222.4863
1398.866, 68.11914
1399.919, 306.1895
1400.972, 202.5234
1402.024, 221.6230
1403.077, 306.8262
1404.129, 255.9531
1405.181, 471.5117
1406.233, 497.3828
1407.285, 554.5547
1408.337, 522.2715
1409.389, 634.4766
1410.440, 621.6719
1411.491, 359.8789
1412.542, 572.1035
1413.593, 764.5781
1414.644, 729.8301
1415.695, 1029.379
1416.745, 754.6016
1417.795, 916.6895
1418.845, 967.7871
1419.895, 992.8027
1420.945, 1122.822
1421.995, 1084.850
1423.044, 1143.863
1424.093, 1138.992
1425.142, 1208.051
1426.191, 1253.979
1427.240, 1380.260
1428.289, 1634.857
1429.337, 1796.693
1430.385, 2046.516
1431.433, 2514.309
1432.481, 2533.070
1433.529, 3434.812
1434.577, 3401.551
1435.624, 4015.320
1436.672, 4361.062
1437.719, 4709.781
1438.766, 4760.479
1439.812, 4933.207
1440.859, 4995.924
1441.905, 5060.168
1442.952, 4945.898
1443.998, 4907.256
1445.044, 4652.357
1446.090, 4621.959
1447.135, 4469.559
1448.181, 4211.170
1449.226, 4305.189
1450.271, 4312.215
1451.316, 4105.281
1452.361, 4118.482
1453.405, 4027.734
1454.450, 3986.127
1455.494, 3872.535
1456.538, 3882.965
1457.582, 3587.473
1458.626, 3875.059
1459.670, 3224.666
1460.713, 3173.361
1461.757, 3215.105
1462.800, 2927.883
1463.843, 2835.838
1464.886, 2560.816
1465.928, 2461.814
1466.971, 2277.836
1468.013, 1965.881
1469.055, 1890.947
1470.097, 1648.039
1471.139, 1377.154
1472.181, 1509.275
1473.222, 1218.404
1474.263, 1133.561
1475.305, 1109.738
1476.346, 977.9375
1477.386, 761.1602
1478.427, 915.3594
1479.468, 672.5801
1480.508, 783.7383
1481.548, 478.9199
1482.588, 682.0664
1483.628, 622.2344
1484.668, 579.4238
1485.707, 658.6309
1486.747, 643.8105
1487.786, 607.7910
1488.825, 473.2344
1489.864, 462.4668
1490.902, 414.7090
1491.941, 221.9570
1492.979, 198.2285
1494.017, 191.5195
1495.055, 53.17383
1496.093, 196.1562
1497.131, 301.5176
1498.168, 110.9121
1499.206, 136.3340
1500.243, 12.78906
1501.280, 59.28516
1502.317, 101.8203
1503.354, 24.40039
1504.390, 117.0312
1505.426, 100.5703
1506.463, 71.55664
1507.499, 51.22461
1508.535, 398.0605
1509.570, 234.9512
1510.606, 114.0957
1511.641, 197.9277
1512.676, 113.0137
1513.711, 222.1562
1514.746, 68.65039
1515.781, 190.5977
1516.816, 110.8965
1517.850, 96.23633
1518.884, 232.6270
1519.918, 14.05664
1520.952, 68.53125
1521.986, 332.0508
1523.019, 36.38477
1524.053, 223.2285
1525.086, 73.88477
1526.119, 196.5918
1527.152, 117.7559
1528.185, 208.1797
1529.217, 58.06445
1530.250, 32.01758
1531.282, 333.0371
1532.314, 10.12891
1533.346, 281.3047
1534.377, 306.9160
1535.409, 171.9805
1536.440, 212.2598
1537.472, 110.2305
1538.503, 205.6582
1539.534, 77.26172
1540.564, 158.4668
1541.595, 167.5742
1542.625, 200.3320
1543.656, 190.0977
1544.686, 186.4629
1545.716, 147.4531
1546.745, 160.9336
1547.775, 71.80664
1548.804, 86.46289
1549.834, 210.4668
1550.863, 98.06836
1551.892, 351.0371
1552.920, 270.6055
1553.949, 394.2109
1554.977, 443.1719
1556.006, 526.4844
1557.034, 220.6289
1558.062, 296.6797
1559.089, 180.5918
1560.117, 312.6855
1561.144, 150.2441
1562.172, 234.9062
1563.199, 413.3848
1564.226, 211.3359
1565.252, 2.830078
1566.279, 486.8398
1567.305, 246.1406
1568.332, 276.8125
1569.358, 1.279297
1570.384, 189.9082
1571.409, 0.0000000E+00
##END=



