##NAMES=Whewellite
##RRUFFID=R050240
##IDEAL CHEMISTRY=CaC_2_O_4_&#183;H_2_O
##LOCALITY=Huron River, Milan, Ohio, USA
##OWNER=RRUFF
##SOURCE=Marcus Origlieri
##DESCRIPTION=White fragment
##STATUS=The identification of this mineral has been confirmed by X-ray diffraction and chemical analysis
##URL=rruff.info/R050240
##MEASURED CHEMISTRY=Ca_1.00_C_2_O_4_Â·H_2_O
##PIN_ID=L01973
##ORIENTATION=Laser parallel to b* (0 1 0). Fiducial mark perpendicular to laser is parallel to -c [0 0 -1]
100.8830, 0.0000000E+00
102.1160, 14.77075
103.3490, 3.538330
104.5820, 13.12158
105.8150, 123.4558
107.0470, 66.74316
108.2800, 118.0125
109.5120, 71.05078
110.7440, 91.98267
111.9760, 169.1531
113.2080, 227.0564
114.4400, 259.2925
115.6710, 394.5442
116.9030, 378.5579
118.1340, 577.1260
119.3650, 624.0767
120.5960, 717.2632
121.8270, 863.5586
123.0580, 1027.847
124.2880, 1237.031
125.5190, 1409.023
126.7490, 1726.752
127.9790, 2032.158
129.2090, 2486.193
130.4390, 2899.816
131.6680, 3525.980
132.8980, 3891.649
134.1270, 4492.792
135.3560, 5008.386
136.5850, 5579.400
137.8140, 5958.808
139.0430, 6257.575
140.2710, 6241.660
141.5000, 6090.063
142.7280, 5408.736
143.9560, 4827.658
145.1840, 4148.814
146.4120, 3480.190
147.6390, 2777.773
148.8670, 2202.550
150.0940, 1787.515
151.3210, 1488.657
152.5490, 1105.000
153.7750, 1002.505
155.0020, 784.2505
156.2290, 666.1943
157.4550, 584.2903
158.6810, 464.9653
159.9080, 410.0579
161.1340, 323.6257
162.3590, 291.2952
163.5850, 232.8628
164.8110, 297.0854
166.0360, 207.2620
167.2610, 315.5759
168.4860, 288.0645
169.7110, 379.6443
170.9360, 256.3301
172.1610, 415.0952
173.3850, 540.9805
174.6100, 532.9402
175.8340, 727.8345
177.0580, 862.6775
178.2820, 999.4917
179.5050, 1292.292
180.7290, 1613.892
181.9520, 1880.703
183.1760, 2329.612
184.3990, 2817.547
185.6220, 3267.500
186.8450, 3835.497
188.0670, 4529.538
189.2900, 5186.604
190.5120, 5911.696
191.7340, 6344.829
192.9560, 6705.001
194.1780, 6712.215
195.4000, 6534.459
196.6220, 6212.736
197.8430, 6049.055
199.0640, 6049.464
200.2860, 5908.910
201.5070, 5829.390
202.7270, 5552.062
203.9480, 5127.584
205.1690, 4720.142
206.3890, 4291.840
207.6090, 3772.576
208.8290, 3332.773
210.0490, 2928.483
211.2690, 2635.221
212.4890, 2345.390
213.7080, 2155.718
214.9280, 2015.611
216.1470, 1937.978
217.3660, 1908.135
218.5850, 1910.935
219.8030, 1991.750
221.0220, 1982.582
222.2400, 1761.429
223.4590, 1702.291
224.6770, 1490.167
225.8950, 1286.380
227.1120, 1119.240
228.3300, 997.2075
229.5480, 860.4717
230.7650, 748.8179
231.9820, 665.9287
233.1990, 717.8867
234.4160, 509.7031
235.6330, 566.0903
236.8490, 457.9302
238.0660, 480.3457
239.2820, 483.0898
240.4980, 419.8657
241.7140, 353.6475
242.9300, 343.9478
244.1460, 316.8374
245.3610, 378.0850
246.5770, 275.5981
247.7920, 218.5234
249.0070, 313.2627
250.2220, 195.2314
251.4370, 177.6191
252.6510, 50.32617
253.8660, 92.25879
255.0800, 127.3877
256.2940, 80.68945
257.5080, 141.1450
258.7220, 161.7397
259.9360, 33.54004
261.1490, 40.29150
262.3630, 56.85645
263.5760, 84.07812
264.7890, 101.4346
266.0020, 22.11230
267.2150, 47.38916
268.4270, 28.73535
269.6400, 53.14600
270.8520, 25.61719
272.0640, 90.98389
273.2760, 76.56299
274.4880, 105.1919
275.7000, 128.8774
276.9120, 135.5952
278.1230, 150.3535
279.3340, 144.3657
280.5450, 86.98193
281.7560, 99.45117
282.9670, 122.3481
284.1780, 46.27441
285.3880, 44.18848
286.5980, 35.16846
287.8090, 49.17285
289.0190, 63.04932
290.2290, 64.24951
291.4380, 75.49072
292.6480, 73.14209
293.8570, 81.19727
295.0670, 84.03125
296.2760, 74.41113
297.4850, 59.56836
298.6930, 36.04248
299.9020, 82.22754
301.1110, 95.03467
302.3190, 30.24414
303.5270, 36.43311
304.7350, 116.7925
305.9430, 127.0269
307.1510, 41.96240
308.3580, 34.32520
309.5660, 1.593262
310.7730, 5.313477
311.9800, 48.02490
313.1870, 9.416992
314.3940, 19.58691
315.6010, 48.71387
316.8070, 30.59033
318.0130, 68.75586
319.2200, 20.97803
320.4260, 68.61084
321.6310, 14.12451
322.8370, 26.50732
324.0430, 17.22852
325.2480, 18.03516
326.4540, 43.70410
327.6590, 7.550293
328.8640, 26.19482
330.0680, 37.50146
331.2730, 8.743652
332.4780, 10.85059
333.6820, 68.39209
334.8860, 58.15771
336.0900, 70.61475
337.2940, 56.11719
338.4980, 69.35645
339.7010, 40.59473
340.9050, 17.83008
342.1080, 24.06494
343.3110, 18.32715
344.5140, 90.60938
345.7170, 58.83643
346.9200, 22.06006
348.1220, 52.72510
349.3240, 22.52539
350.5270, 31.66553
351.7290, 107.8521
352.9310, 50.97559
354.1320, 13.16797
355.3340, 2.698242
356.5350, 33.56982
357.7370, 11.54199
358.9380, 54.35400
360.1390, 6.277344
361.3400, 17.77832
362.5400, 27.17383
363.7410, 106.8608
364.9410, 60.10938
366.1410, 52.89844
367.3410, 21.09912
368.5410, 70.89062
369.7410, 8.874023
370.9400, 20.83105
372.1400, 17.21777
373.3390, 7.706055
374.5380, 101.6123
375.7370, 23.50342
376.9360, 105.3633
378.1350, 21.21533
379.3330, 65.04395
380.5310, 23.85938
381.7300, 47.33252
382.9280, 83.44678
384.1260, 14.21045
385.3230, 21.03223
386.5210, 5.709961
387.7180, 21.42725
388.9160, 32.87158
390.1130, 88.80859
391.3100, 2.527344
392.5060, 53.13477
393.7030, 79.80469
394.9000, 15.48193
396.0960, 74.16260
397.2920, 46.84766
398.4880, 51.53418
399.6840, 83.22266
400.8800, 79.91162
402.0750, 101.8442
403.2710, 76.53369
404.4660, 106.8506
405.6610, 23.46436
406.8560, 47.80469
408.0510, 23.71289
409.2450, 17.33887
410.4400, 40.96240
411.6340, 138.5811
412.8280, 46.19580
414.0220, 41.92041
415.2160, 22.46094
416.4100, 62.12939
417.6030, 48.72266
418.7970, 43.31348
419.9900, 48.89795
421.1830, 112.4751
422.3760, 108.0459
423.5690, 79.60986
424.7610, 1.168457
425.9540, 81.70459
427.1460, 61.23145
428.3380, 14.75049
429.5300, 62.25244
430.7220, 67.74463
431.9140, 108.2285
433.1050, 78.70361
434.2970, 23.16895
435.4880, 73.61816
436.6790, 19.05811
437.8700, 27.51953
439.0610, 13.86084
440.2510, 106.2202
441.4420, 41.56982
442.6320, 67.92090
443.8220, 31.26318
445.0120, 96.58887
446.2020, 54.90430
447.3910, 90.39551
448.5810, 79.68896
449.7700, 30.97119
450.9600, 56.23682
452.1490, 80.49072
453.3370, 6.728516
454.5260, 3.874023
455.7150, 44.68115
456.9030, 36.70898
458.0910, 35.47070
459.2800, 27.13672
460.4670, 59.48389
461.6550, 28.40430
462.8430, 15.26318
464.0300, 130.7178
465.2180, 44.45361
466.4050, 95.48291
467.5920, 118.0786
468.7790, 173.0859
469.9650, 161.5483
471.1520, 99.53320
472.3380, 41.69873
473.5250, 91.33301
474.7110, 55.28662
475.8970, 134.9307
477.0820, 96.85986
478.2680, 122.7915
479.4540, 101.7129
480.6390, 105.6431
481.8240, 75.52100
483.0090, 101.4082
484.1940, 104.2847
485.3780, 71.14990
486.5630, 69.00342
487.7470, 97.84473
488.9320, 133.6753
490.1160, 143.4946
491.3000, 218.6660
492.4830, 209.3916
493.6670, 138.1772
494.8500, 213.9521
496.0340, 255.0093
497.2170, 235.7622
498.4000, 303.2310
499.5820, 239.1074
500.7650, 305.8276
501.9480, 199.4150
503.1300, 333.5967
504.3120, 266.2852
505.4940, 269.2861
506.6760, 327.9541
507.8580, 268.9478
509.0390, 338.5957
510.2210, 325.7568
511.4020, 298.3843
512.5830, 381.9507
513.7640, 339.5581
514.9450, 376.7666
516.1250, 537.2153
517.3060, 456.7930
518.4860, 471.5015
519.6660, 466.0601
520.8460, 374.6084
522.0260, 475.1484
523.2060, 524.6782
524.3850, 375.7749
525.5650, 259.2881
526.7440, 284.6792
527.9230, 228.1938
529.1020, 165.2148
530.2810, 203.6865
531.4590, 230.3950
532.6380, 145.4453
533.8160, 100.8560
534.9940, 126.3042
536.1720, 110.7441
537.3500, 220.9165
538.5270, 133.3794
539.7050, 97.79297
540.8820, 193.1978
542.0590, 138.5942
543.2360, 34.28760
544.4130, 106.6636
545.5900, 46.03027
546.7660, 140.4253
547.9430, 157.1470
549.1190, 5.364746
550.2950, 169.5117
551.4710, 63.65088
552.6470, 73.05469
553.8220, 96.35498
554.9980, 43.38623
556.1730, 94.66699
557.3480, 122.6455
558.5230, 125.9609
559.6980, 105.2642
560.8730, 148.4995
562.0470, 144.1431
563.2220, 161.2642
564.3960, 170.4839
565.5700, 201.1841
566.7440, 208.7837
567.9170, 97.97754
569.0910, 124.1636
570.2640, 118.3804
571.4380, 214.5493
572.6110, 147.7095
573.7840, 195.8623
574.9570, 219.0059
576.1290, 148.4087
577.3020, 197.5366
578.4740, 253.8389
579.6460, 179.2417
580.8180, 202.1089
581.9900, 178.2056
583.1620, 350.5742
584.3330, 322.6553
585.5040, 197.1201
586.6760, 327.1860
587.8470, 265.1416
589.0180, 302.1968
590.1880, 302.2446
591.3590, 309.5923
592.5290, 361.5137
593.7000, 348.5405
594.8700, 343.7188
596.0400, 316.7109
597.2090, 329.7954
598.3790, 315.3965
599.5490, 315.7954
600.7180, 327.9399
601.8870, 246.8564
603.0560, 317.8931
604.2250, 255.0820
605.3940, 245.0659
606.5620, 145.6772
607.7300, 210.6514
608.8990, 215.6211
610.0670, 318.5859
611.2350, 173.5522
612.4020, 69.68604
613.5700, 46.20264
614.7370, 82.16260
615.9050, 208.9561
617.0720, 124.9072
618.2390, 98.95898
619.4060, 72.89941
620.5720, 69.83447
621.7390, 115.7646
622.9050, 95.68945
624.0710, 128.7593
625.2370, 147.5244
626.4030, 167.4038
627.5690, 152.2568
628.7340, 151.1567
629.9000, 103.0522
631.0650, 159.9434
632.2300, 109.8408
633.3950, 135.7393
634.5600, 138.6338
635.7240, 100.5229
636.8890, 125.4204
638.0530, 131.3140
639.2170, 58.20361
640.3810, 85.09814
641.5450, 92.98877
642.7080, 65.88867
643.8720, 170.7871
645.0350, 57.68262
646.1980, 133.5815
647.3610, 39.47656
648.5240, 198.3833
649.6870, 157.2871
650.8490, 67.19336
652.0120, 153.0967
653.1740, 226.9961
654.3360, 121.8931
655.4980, 124.7930
656.6600, 188.6904
657.8210, 151.5845
658.9830, 66.48340
660.1440, 86.37988
661.3050, 45.27295
662.4660, 131.1626
663.6270, 109.2480
664.7870, 65.14746
665.9480, 154.0439
667.1080, 78.93799
668.2680, 17.54785
669.4280, 122.4478
670.5880, 28.95410
671.7480, 2.138184
672.9070, 57.76074
674.0670, 65.66211
675.2260, 29.56152
676.3850, 64.45801
677.5440, 13.35303
678.7030, 153.2456
679.8610, 54.13574
681.0200, 118.0239
682.1780, 0.9091800
683.3360, 163.5474
684.4940, 19.42529
685.6520, 11.23145
686.8090, 65.10547
687.9670, 7.988770
689.1240, 44.00928
690.2810, 16.13721
691.4380, 4.724121
692.5950, 95.58252
693.7520, 55.56104
694.9080, 26.16260
696.0650, 5.016113
697.2210, 29.18848
698.3770, 13.38037
699.5330, 82.41650
700.6880, 97.21240
701.8440, 1.992676
702.9990, 105.7979
704.1550, 5.412598
705.3100, 27.37012
706.4650, 29.16016
707.6190, 136.9492
708.7740, 12.73730
709.9290, 30.52881
711.0830, 51.31934
712.2370, 36.11035
713.3910, 62.90088
714.5450, 24.69043
715.6980, 15.48291
716.8520, 1.724609
718.0050, 79.06982
719.1580, 3.879883
720.3110, 38.69531
721.4640, 57.48926
722.6170, 22.31787
723.7700, 30.12500
724.9220, 24.94629
726.0740, 51.68848
727.2260, 20.58984
728.3780, 33.41162
729.5300, 87.23633
730.6810, 42.06494
731.8330, 18.89453
732.9840, 37.72510
734.1350, 13.56396
735.2860, 46.43066
736.4370, 11.70068
737.5880, 65.16602
738.7380, 95.03613
739.8880, 26.91406
741.0390, 56.29053
742.1890, 44.31055
743.3380, 20.57129
744.4880, 50.45361
745.6380, 57.33936
746.7870, 22.22607
747.9360, 78.11377
749.0850, 39.00244
750.2340, 23.09863
751.3830, 80.79004
752.5310, 45.68262
753.6800, 171.5762
754.8280, 6.472168
755.9760, 54.63086
757.1240, 37.24072
758.2720, 8.113281
759.4190, 9.987793
760.5670, 115.8633
761.7140, 38.74072
762.8610, 109.6196
764.0080, 75.50049
765.1550, 105.3828
766.3020, 122.2671
767.4480, 265.1528
768.5950, 252.0410
769.7410, 216.9307
770.8870, 181.8223
772.0330, 393.7153
773.1780, 309.6104
774.3240, 366.5078
775.4690, 326.4067
776.6140, 303.3076
777.7590, 405.2104
778.9040, 353.1152
780.0490, 348.0220
781.1940, 368.9307
782.3380, 332.8418
783.4820, 234.7544
784.6260, 260.6689
785.7700, 286.5854
786.9140, 133.5039
788.0580, 89.42432
789.2010, 158.3472
790.3450, 164.2769
791.4880, 81.20947
792.6310, 71.14355
793.7730, 200.0801
794.9160, 134.0190
796.0590, 81.95996
797.2010, 142.9023
798.3430, 72.84814
799.4850, 122.8135
800.6270, 9.218262
801.7690, 94.75049
802.9100, 4.720215
804.0520, 23.69287
805.1930, 22.33203
806.3340, 120.6196
807.4750, 20.40820
808.6160, 111.5610
809.7560, 55.94775
810.8970, 112.9214
812.0370, 77.89697
813.1770, 49.87549
814.3170, 66.85645
815.4570, 100.7988
816.5960, 64.78516
817.7360, 33.77344
818.8750, 85.76465
820.0140, 146.4517
821.1530, 77.44873
822.2920, 100.4492
823.4310, 195.4170
824.5690, 147.4229
825.7070, 186.3638
826.8460, 62.32324
827.9840, 96.04346
829.1220, 103.9683
830.2590, 81.99170
831.3970, 216.2783
832.5340, 143.3086
833.6710, 187.7993
834.8080, 62.78711
835.9450, 224.7817
837.0820, 225.8276
838.2190, 181.8770
839.3550, 184.6318
840.4910, 233.6885
841.6270, 230.4258
842.7630, 194.3232
843.8990, 272.3906
845.0350, 351.4614
846.1700, 341.5376
847.3060, 411.6235
848.4410, 455.7168
849.5760, 502.8135
850.7100, 517.9141
851.8450, 579.1909
852.9800, 555.1255
854.1140, 689.1074
855.2480, 743.2222
856.3820, 810.3394
857.5160, 954.4609
858.6500, 1053.945
859.7830, 1087.074
860.9170, 1154.643
862.0500, 1211.778
863.1830, 1195.919
864.3160, 1193.063
865.4480, 1315.804
866.5810, 1141.954
867.7130, 1224.127
868.8460, 1185.314
869.9780, 1317.505
871.1100, 1342.820
872.2410, 1844.030
873.3730, 1808.673
874.5050, 1956.913
875.6360, 2219.672
876.7670, 2213.917
877.8980, 2417.167
879.0290, 2536.851
880.1590, 2488.106
881.2900, 2679.365
882.4200, 2835.626
883.5500, 2650.890
884.6800, 2639.158
885.8100, 2708.337
886.9400, 2759.439
888.0690, 2767.716
889.1990, 2598.995
890.3280, 2633.277
891.4570, 2716.562
892.5860, 2857.746
893.7140, 2982.037
894.8430, 2867.332
895.9710, 2470.632
897.1000, 2036.934
898.2280, 1685.239
899.3560, 1438.513
900.4830, 1140.861
901.6110, 1072.178
902.7380, 971.4971
903.8660, 890.8193
904.9930, 820.1455
906.1200, 888.4741
907.2460, 720.8066
908.3730, 905.1416
909.5000, 994.4800
910.6260, 887.8213
911.7520, 903.1665
912.8780, 995.5137
914.0040, 1001.864
915.1290, 1057.224
916.2550, 1142.575
917.3800, 1154.936
918.5050, 1187.299
919.6300, 1253.665
920.7550, 1135.035
921.8800, 1155.406
923.0040, 1274.782
924.1290, 1185.161
925.2530, 1382.697
926.3770, 1393.082
927.5010, 1360.470
928.6250, 1316.904
929.7480, 1285.297
930.8720, 1374.693
931.9950, 1453.093
933.1180, 1534.495
934.2410, 1587.135
935.3640, 1595.100
936.4860, 1634.739
937.6090, 1586.157
938.7310, 1524.573
939.8530, 1550.991
940.9750, 1452.702
942.0970, 1416.126
943.2180, 1272.943
944.3400, 1334.372
945.4610, 1318.814
946.5820, 1086.260
947.7030, 1046.708
948.8240, 901.1577
949.9450, 854.6108
951.0650, 751.0669
952.1860, 854.5254
953.3060, 729.9858
954.4260, 658.4492
955.5460, 568.9165
956.6650, 418.3867
957.7850, 403.8594
958.9040, 359.3345
960.0230, 374.8135
961.1420, 324.4482
962.2610, 296.7915
963.3800, 239.2959
964.4990, 246.8037
965.6170, 192.3140
966.7350, 174.8608
967.8530, 155.1318
968.9710, 214.4463
970.0890, 99.99316
971.2070, 79.54688
972.3240, 32.12744
973.4410, 153.6855
974.5580, 97.26270
975.6750, 150.8286
976.7920, 32.43799
977.9090, 68.00977
979.0250, 117.5840
980.1410, 90.45508
981.2580, 44.54736
982.3740, 20.69971
983.4890, 114.3745
984.6050, 70.95654
985.7200, 75.54053
986.8360, 45.12500
987.9510, 35.71143
989.0660, 25.29980
990.1810, 40.88965
991.2950, 8.480469
992.4100, 88.92773
993.5240, 91.69189
994.6390, 48.74072
995.7530, 22.80664
996.8660, 57.60205
997.9800, 30.15137
999.0940, 18.29883
1000.207, 72.31982
1001.320, 40.31006
1002.433, 116.2197
1003.546, 67.91504
1004.659, 71.53027
1005.772, 122.8291
1006.884, 54.34912
1007.996, 113.5220
1009.108, 9.952148
1010.220, 61.56787
1011.332, 39.26221
1012.444, 71.78223
1013.555, 78.35547
1014.666, 61.84766
1015.777, 72.37988
1016.888, 73.91113
1017.999, 61.44189
1019.110, 31.02783
1020.220, 87.48438
1021.331, 57.00098
1022.441, 159.5283
1023.551, 66.05957
1024.661, 151.5903
1025.770, 182.2793
1026.880, 156.8203
1027.989, 123.3613
1029.098, 76.07910
1030.207, 96.63818
1031.316, 117.2036
1032.425, 86.76074
1033.533, 139.6348
1034.642, 166.1890
1035.750, 117.7427
1036.858, 72.29590
1037.966, 82.90625
1039.073, 44.47168
1040.181, 148.0361
1041.288, 80.59863
1042.396, 143.1616
1043.503, 153.7227
1044.610, 93.28271
1045.716, 67.84033
1046.823, 185.3965
1047.929, 84.94971
1049.036, 163.5020
1050.142, 185.4956
1051.248, 74.66699
1052.353, 202.3062
1053.459, 163.8594
1054.564, 69.41016
1055.670, 95.98096
1056.775, 71.54980
1057.880, 13.84570
1058.985, 46.71191
1060.089, 25.53760
1061.194, 12.82031
1062.298, 76.37109
1063.402, 93.93262
1064.506, 139.4922
1065.610, 186.0693
1066.713, 61.37646
1067.817, 37.13818
1068.920, 97.66016
1070.023, 25.18018
1071.126, 191.6978
1072.229, 96.21289
1073.332, 142.7246
1074.435, 118.2368
1075.537, 146.8242
1076.639, 150.3394
1077.741, 134.6934
1078.843, 231.2163
1079.945, 334.7422
1081.046, 381.2646
1082.148, 513.7983
1083.249, 552.3145
1084.350, 578.8262
1085.451, 504.3687
1086.551, 649.8726
1087.652, 473.3740
1088.752, 321.8711
1089.853, 313.3643
1090.953, 101.8545
1092.053, 62.61426
1093.152, 179.0957
1094.252, 81.57422
1095.351, 42.04688
1096.451, 216.5225
1097.550, 62.99414
1098.649, 33.57227
1099.748, 3.057617
1100.846, 73.53418
1101.945, 134.0059
1103.043, 146.4766
1104.141, 33.94336
1105.239, 115.4043
1106.337, 36.86035
1107.434, 153.7812
1108.532, 32.22754
1109.629, 96.70020
1110.726, 156.2344
1111.823, 10.67285
1112.920, 10.90332
1114.017, 4.500000
1115.113, 22.89355
1116.210, 65.28125
1117.306, 135.6631
1118.402, 193.0410
1119.498, 192.4121
1120.593, 203.0098
1121.689, 112.1387
1122.784, 120.4941
1123.879, 156.8438
1124.974, 29.32715
1126.069, 202.6670
1127.164, 88.64258
1128.259, 9.970703
1129.353, 92.29102
1130.447, 160.6436
1131.541, 23.46680
1132.635, 59.22949
1133.729, 25.97070
1134.822, 16.89551
1135.916, 136.1211
1137.009, 34.71387
1138.102, 72.47754
1139.195, 79.33691
1140.288, 84.45605
1141.380, 94.06543
1142.473, 12.25195
1143.565, 43.53711
1144.657, 121.9443
1145.749, 111.1338
1146.841, 125.6514
1147.932, 100.3193
1149.024, 93.40527
1150.115, 94.48242
1151.206, 54.64551
1152.297, 59.71387
1153.388, 132.4336
1154.479, 92.36816
1155.569, 106.4170
1156.659, 15.49121
1157.750, 89.52637
1158.839, 78.55566
1159.929, 15.52734
1161.019, 102.3652
1162.108, 46.41016
1163.198, 145.4121
1164.287, 12.40918
1165.376, 62.39551
1166.465, 126.3760
1167.553, 103.5068
1168.642, 36.71191
1169.730, 127.8018
1170.818, 151.7559
1171.906, 115.7959
1172.994, 150.9248
1174.082, 143.5596
1175.170, 122.8301
1176.257, 135.7500
1177.344, 95.66895
1178.431, 60.57520
1179.518, 74.47559
1180.605, 38.26562
1181.691, 149.1514
1182.778, 31.03027
1183.864, 170.8740
1184.950, 171.7393
1186.036, 180.8633
1187.122, 83.71387
1188.207, 50.45801
1189.292, 116.1396
1190.378, 63.96973
1191.463, 117.7920
1192.548, 106.5645
1193.632, 83.70117
1194.717, 180.5020
1195.801, 55.29688
1196.886, 112.0840
1197.970, 90.64453
1199.054, 81.53711
1200.137, 134.3037
1201.221, 62.13867
1202.305, 126.8896
1203.388, 108.6348
1204.471, 80.37207
1205.554, 39.47363
1206.637, 106.8398
1207.719, 8.876953
1208.802, 133.2549
1209.884, 125.4385
1210.966, 187.1152
1212.048, 57.78418
1213.130, 156.4463
1214.212, 94.09961
1215.293, 52.74609
1216.374, 164.3838
1217.456, 195.0156
1218.536, 169.6396
1219.617, 98.25391
1220.698, 190.8623
1221.778, 24.46387
1222.859, 160.0684
1223.939, 61.65137
1225.019, 71.22656
1226.099, 95.83789
1227.178, 121.7197
1228.258, 43.50195
1229.337, 84.02832
1230.417, 66.04590
1231.496, 122.5762
1232.574, 126.8320
1233.653, 82.34668
1234.732, 83.82812
1235.810, 83.32715
1236.888, 20.80371
1237.966, 110.2832
1239.044, 54.71582
1240.122, 39.17969
1241.199, 59.63672
1242.277, 116.7900
1243.354, 111.7168
1244.431, 94.57715
1245.508, 64.91016
1246.585, 85.33008
1247.661, 88.74316
1248.738, 86.02832
1249.814, 90.35059
1250.890, 91.93945
1251.966, 73.32422
1253.042, 66.70215
1254.117, 36.45020
1255.193, 66.40625
1256.268, 35.78320
1257.343, 59.16504
1258.418, 114.2920
1259.493, 44.66016
1260.567, 30.02246
1261.642, 97.30566
1262.716, 97.21289
1263.790, 9.805664
1264.864, 82.37598
1265.938, 29.69336
1267.011, 106.1826
1268.085, 101.2549
1269.158, 1.171875
1270.231, 97.47656
1271.304, 19.78027
1272.377, 10.90332
1273.450, 7.193359
1274.522, 14.47559
1275.594, 54.75195
1276.666, 64.89355
1277.738, 82.14453
1278.810, 101.5498
1279.882, 73.80664
1280.953, 53.06738
1282.025, 32.67578
1283.096, 4.508789
1284.167, 33.76855
1285.238, 22.98047
1286.308, 91.02832
1287.379, 114.2314
1288.449, 6.570313
1289.519, 52.55664
1290.589, 19.59277
1291.659, 83.73242
1292.729, 135.8740
1293.798, 129.6953
1294.868, 63.83203
1295.937, 4.963867
1297.006, 12.90820
1298.075, 27.36719
1299.143, 30.24414
1300.212, 5.333008
1301.280, 2.418945
1302.348, 50.49805
1303.416, 17.57617
1304.484, 100.6523
1305.552, 18.72949
1306.620, 53.80273
1307.687, 111.8770
1308.754, 10.05078
1309.821, 68.96484
1310.888, 80.03809
1311.955, 11.97656
1313.021, 104.0918
1314.088, 80.84082
1315.154, 16.18262
1316.220, 11.79297
1317.286, 90.19043
1318.352, 68.21289
1319.417, 90.23438
1320.483, 21.25586
1321.548, 51.72363
1322.613, 98.26465
1323.678, 20.25098
1324.743, 136.2041
1325.807, 51.17383
1326.872, 33.84082
1327.936, 139.1299
1329.000, 8.6914003E-02
1330.064, 102.0254
1331.128, 73.96094
1332.191, 63.89453
1333.255, 7.175781
1334.318, 12.32520
1335.381, 27.33789
1336.444, 26.20703
1337.507, 27.42773
1338.569, 26.45703
1339.632, 52.31348
1340.694, 96.15137
1341.756, 99.99902
1342.818, 61.84375
1343.880, 74.04980
1344.941, 104.4932
1346.003, 38.33301
1347.064, 147.1699
1348.125, 130.0049
1349.186, 135.8398
1350.247, 0.3984380
1351.308, 36.22949
1352.368, 94.05957
1353.428, 25.11230
1354.489, 11.29004
1355.549, 92.47070
1356.608, 80.23828
1357.668, 44.03320
1358.727, 109.8311
1359.787, 21.37207
1360.846, 31.41992
1361.905, 122.2129
1362.964, 66.00488
1364.022, 27.79688
1365.081, 49.12109
1366.139, 120.9131
1367.197, 69.67676
1368.255, 120.3721
1369.313, 93.15918
1370.371, 69.95605
1371.428, 75.76074
1372.486, 71.05664
1373.543, 36.38184
1374.600, 90.19531
1375.657, 169.0098
1376.713, 183.8271
1377.770, 193.6455
1378.826, 143.4658
1379.882, 123.2881
1380.938, 110.1113
1381.994, 92.59863
1383.050, 108.4365
1384.106, 124.4385
1385.161, 182.2705
1386.216, 291.1084
1387.271, 406.9111
1388.326, 544.6465
1389.381, 477.4941
1390.435, 478.3662
1391.490, 488.6201
1392.544, 570.5107
1393.598, 522.3408
1394.652, 631.2549
1395.705, 691.1748
1396.759, 726.4639
1397.812, 736.4209
1398.866, 634.3193
1399.919, 605.1211
1400.972, 555.8018
1402.024, 531.7041
1403.077, 465.7021
1404.129, 528.7100
1405.181, 636.7275
1406.233, 639.7539
1407.285, 645.7920
1408.337, 671.8418
1409.389, 668.3018
1410.440, 632.4355
1411.491, 683.5195
1412.542, 584.5879
1413.593, 589.7012
1414.644, 681.8281
1415.695, 617.0215
1416.745, 717.3594
1417.795, 727.5029
1418.845, 769.6973
1419.895, 676.9111
1420.945, 807.1465
1421.995, 759.4023
1423.044, 846.5234
1424.093, 831.5879
1425.142, 724.7842
1426.191, 861.1367
1427.240, 752.4238
1428.289, 915.6152
1429.337, 874.0557
1430.385, 907.6416
1431.433, 923.1484
1432.481, 960.6865
1433.529, 1062.270
1434.577, 1197.895
1435.624, 1238.113
1436.672, 1316.832
1437.719, 1134.600
1438.766, 1147.104
1439.812, 1339.978
1440.859, 1444.649
1441.905, 1639.559
1442.952, 1666.526
1443.998, 1690.338
1445.044, 1715.966
1446.090, 1853.466
1447.135, 1903.863
1448.181, 2206.660
1449.226, 2182.787
1450.271, 2258.746
1451.316, 2355.781
1452.361, 2787.902
1453.405, 2935.639
1454.450, 3706.420
1455.494, 4308.402
1456.538, 5375.512
1457.582, 6726.630
1458.626, 8454.754
1459.670, 10307.88
1460.713, 11445.02
1461.757, 11774.16
1462.800, 10445.32
1463.843, 8790.911
1464.886, 7494.977
1465.928, 6555.086
1466.971, 6068.332
1468.013, 6002.453
1469.055, 6179.584
1470.097, 6360.727
1471.139, 6620.881
1472.181, 6931.045
1473.222, 7306.217
1474.263, 7926.400
1475.305, 8607.592
1476.346, 9804.799
1477.386, 10989.01
1478.427, 12704.24
1479.468, 14868.47
1480.508, 17923.73
1481.548, 21269.98
1482.588, 25910.28
1483.628, 30721.59
1484.668, 36136.91
1485.707, 40991.24
1486.747, 45356.59
1487.786, 48178.96
1488.825, 47710.34
1489.864, 44330.73
1490.902, 38308.14
1491.941, 31348.61
1492.979, 24637.08
1494.017, 19264.56
1495.055, 14571.12
1496.093, 11122.69
1497.131, 8695.272
1498.168, 6818.873
1499.206, 5621.526
1500.243, 4330.192
1501.280, 3711.864
1502.317, 3083.541
1503.354, 2604.217
1504.390, 2217.867
1505.426, 1904.518
1506.463, 1585.202
1507.499, 1410.927
1508.535, 1162.655
1509.570, 1071.386
1510.606, 986.1924
1511.641, 864.0684
1512.676, 813.0674
1513.711, 667.0010
1514.746, 700.0928
1515.781, 643.2207
1516.816, 594.3896
1517.850, 435.6172
1518.884, 384.0332
1519.918, 558.5244
1520.952, 353.0713
1521.986, 473.6777
1523.019, 234.3457
1524.053, 274.0771
1525.086, 231.8779
1526.119, 125.7510
1527.152, 357.6992
1528.185, 215.7236
1529.217, 95.82910
1530.250, 306.0215
1531.282, 148.3047
1532.314, 280.6816
1533.346, 153.1572
1534.377, 91.73730
1535.409, 223.4258
1536.440, 145.2305
1537.472, 128.1582
1538.503, 40.22266
1539.534, 150.4375
1540.564, 164.8115
1541.595, 165.3594
1542.625, 162.0859
1543.656, 255.9990
1544.686, 196.3428
1545.716, 25.43066
1546.745, 104.9629
1547.775, 154.7256
1548.804, 57.73633
1549.834, 97.01465
1550.863, 80.58203
1551.892, 83.46191
1552.920, 53.68359
1553.949, 7.722656
1554.977, 111.2803
1556.006, 156.7266
1557.034, 107.6592
1558.062, 142.1270
1559.089, 34.81738
1560.117, 117.8975
1561.144, 157.3486
1562.172, 7.629883
1563.199, 218.7822
1564.226, 196.7383
1565.252, 17.65430
1566.279, 16.02930
1567.305, 63.90918
1568.332, 140.5889
1569.358, 71.89648
1570.384, 0.0000000E+00
##END=



